sample_idx,t_s,t_rel_peak_s,ecg_mv
0,0,-600,0.0134
1,0.01,-599.99,-0.0409
2,0.02,-599.98,-0.0357
3,0.03,-599.97,-0.0115
4,0.04,-599.96,-0.0342
5,0.05,-599.95,-0.0521
6,0.06,-599.94,0.0373
7,0.07,-599.93,0.003
8,0.08,-599.92,0.0086
9,0.09,-599.91,-0.0228
10,0.1,-599.9,0.0066
11,0.11,-599.89,-0.0389
12,0.12,-599.88,0.0018
13,0.13,-599.87,0.054
14,0.14,-599.86,0.0841
15,0.15,-599.85,0.0585
16,0.16,-599.84,0.137
17,0.17,-599.83,0.1202
18,0.18,-599.82,0.096
19,0.19,-599.81,0.0768
20,0.2,-599.8,-0.022
21,0.21,-599.79,-0.06
22,0.22,-599.78,0.0052
23,0.23,-599.77,-0.065
24,0.24,-599.76,-0.0256
25,0.25,-599.75,-0.0579
26,0.26,-599.74,-0.0532
27,0.27,-599.73,-0.0136
28,0.28,-599.72,0.2637
29,0.29,-599.71,1.9645
30,0.3,-599.7,4.0252
31,0.31,-599.69,3.8002
32,0.32,-599.68,0.2347
33,0.33,-599.67,-0.5858
34,0.34,-599.66,-0.097
35,0.35,-599.65,-0.0753
36,0.36,-599.64,-0.0787
37,0.37,-599.63,-0.1104
38,0.38,-599.62,-0.0963
39,0.39,-599.61,-0.1105
40,0.4,-599.6,-0.1509
41,0.41,-599.59,-0.0474
42,0.42,-599.58,-0.1007
43,0.43,-599.57,-0.0967
44,0.44,-599.56,-0.152
45,0.45,-599.55,-0.0705
46,0.46,-599.54,-0.0444
47,0.47,-599.53,-0.0462
48,0.48,-599.52,-0.0916
49,0.49,-599.51,-0.1245
50,0.5,-599.5,-0.0901
51,0.51,-599.49,-0.0286
52,0.52,-599.48,-0.0321
53,0.53,-599.47,-0.0385
54,0.54,-599.46,-0.0068
55,0.55,-599.45,0.0194
56,0.56,-599.44,0.0075
57,0.57,-599.43,0.0764
58,0.58,-599.42,0.1805
59,0.59,-599.41,0.1865
60,0.6,-599.4,0.2508
61,0.61,-599.39,0.3894
62,0.62,-599.38,0.447
63,0.63,-599.37,0.4886
64,0.64,-599.36,0.5141
65,0.65,-599.35,0.5554
66,0.66,-599.34,0.5822
67,0.67,-599.33,0.4551
68,0.68,-599.32,0.3956
69,0.69,-599.31,0.3125
70,0.7,-599.3,0.1899
71,0.71,-599.29,0.1354
72,0.72,-599.28,0.0564
73,0.73,-599.27,0.0616
74,0.74,-599.26,0.082
75,0.75,-599.25,0.0604
76,0.76,-599.24,0.0773
77,0.77,-599.23,0.0446
78,0.78,-599.22,0.026
79,0.79,-599.21,0.0177
80,0.8,-599.2,-0.0307
81,0.81,-599.19,0.0031
82,0.82,-599.18,0.0576
83,0.83,-599.17,-0.0506
84,0.84,-599.16,-0.001
85,0.85,-599.15,-0.0204
86,0.86,-599.14,-0.0751
87,0.87,-599.13,0.0269
88,0.88,-599.12,0.0144
89,0.89,-599.11,-0.0143
90,0.9,-599.1,-0.0184
91,0.91,-599.09,0.0102
92,0.92,-599.08,-0.0121
93,0.93,-599.07,-0.0239
94,0.94,-599.06,-0.0511
95,0.95,-599.05,-0.0097
96,0.96,-599.04,-0.0034
97,0.97,-599.03,-0.0624
98,0.98,-599.02,-0.0124
99,0.99,-599.01,-0.0098
100,1,-599,-0.0483
101,1.01,-598.99,0.0039
102,1.02,-598.98,-0.029
103,1.03,-598.97,0.0027
104,1.04,-598.96,0.012
105,1.05,-598.95,-0.0515
106,1.06,-598.94,-0.0391
107,1.07,-598.93,-0.0043
108,1.08,-598.92,-0.0161
109,1.09,-598.91,-0.028
110,1.1,-598.9,-0.0404
111,1.11,-598.89,-0.0846
112,1.12,-598.88,-0.0333
113,1.13,-598.87,-0.0148
114,1.14,-598.86,-0.0213
115,1.15,-598.85,-0.085
116,1.16,-598.84,-0.0033
117,1.17,-598.83,0.0488
118,1.18,-598.82,0.0707
119,1.19,-598.81,0.1345
120,1.2,-598.8,0.1413
121,1.21,-598.79,0.1611
122,1.22,-598.78,0.1278
123,1.23,-598.77,0.1038
124,1.24,-598.76,0.0243
125,1.25,-598.75,-0.0072
126,1.26,-598.74,0.0199
127,1.27,-598.73,-0.0077
128,1.28,-598.72,-0.0261
129,1.29,-598.71,0.0003
130,1.3,-598.7,0.0188
131,1.31,-598.69,-0.0139
132,1.32,-598.68,0.1154
133,1.33,-598.67,1.3237
134,1.34,-598.66,3.4099
135,1.35,-598.65,4.4635
136,1.36,-598.64,1.5963
137,1.37,-598.63,-0.6655
138,1.38,-598.62,-0.0893
139,1.39,-598.61,0.0021
140,1.4,-598.6,-0.0579
141,1.41,-598.59,-0.031
142,1.42,-598.58,-0.0521
143,1.43,-598.57,-0.056
144,1.44,-598.56,-0.0409
145,1.45,-598.55,-0.0539
146,1.46,-598.54,-0.0265
147,1.47,-598.53,-0.0172
148,1.48,-598.52,-0.0195
149,1.49,-598.51,-0.0517
150,1.5,-598.5,-0.081
151,1.51,-598.49,-0.0275
152,1.52,-598.48,-0.0599
153,1.53,-598.47,-0.0638
154,1.54,-598.46,-0.0759
155,1.55,-598.45,-0.0897
156,1.56,-598.44,-0.0889
157,1.57,-598.43,-0.0896
158,1.58,-598.42,-0.0962
159,1.59,-598.41,-0.0541
160,1.6,-598.4,-0.0373
161,1.61,-598.39,0.0463
162,1.62,-598.38,0.0774
163,1.63,-598.37,0.0921
164,1.64,-598.36,0.1821
165,1.65,-598.35,0.2289
166,1.66,-598.34,0.3873
167,1.67,-598.33,0.4748
168,1.68,-598.32,0.4845
169,1.69,-598.31,0.4835
170,1.7,-598.3,0.4714
171,1.71,-598.29,0.4803
172,1.72,-598.28,0.3833
173,1.73,-598.27,0.3329
174,1.74,-598.26,0.2004
175,1.75,-598.25,0.1601
176,1.76,-598.24,0.0985
177,1.77,-598.23,0.0376
178,1.78,-598.22,-0.0138
179,1.79,-598.21,0.0217
180,1.8,-598.2,0.0708
181,1.81,-598.19,-0.022
182,1.82,-598.18,0.0022
183,1.83,-598.17,-0.0289
184,1.84,-598.16,0.0374
185,1.85,-598.15,0.0577
186,1.86,-598.14,0.1611
187,1.87,-598.13,-0.1117
188,1.88,-598.12,-0.1954
189,1.89,-598.11,-0.1476
190,1.9,-598.1,-0.0811
191,1.91,-598.09,-0.0401
192,1.92,-598.08,-0.0367
193,1.93,-598.07,0.0054
194,1.94,-598.06,-0.0071
195,1.95,-598.05,-0.0101
196,1.96,-598.04,0.05
197,1.97,-598.03,0.0018
198,1.98,-598.02,0.0194
199,1.99,-598.01,0.0212
200,2,-598,-0.0047
201,2.01,-597.99,0.027
202,2.02,-597.98,-0.0605
203,2.03,-597.97,0.025
204,2.04,-597.96,-0.0034
205,2.05,-597.95,-0.0037
206,2.06,-597.94,0.025
207,2.07,-597.93,-0.0273
208,2.08,-597.92,-0.0592
209,2.09,-597.91,-0.0397
210,2.1,-597.9,-0.0276
211,2.11,-597.89,-0.0015
212,2.12,-597.88,0.0147
213,2.13,-597.87,-0.0128
214,2.14,-597.86,-0.0292
215,2.15,-597.85,0.0511
216,2.16,-597.84,0.0048
217,2.17,-597.83,0.0591
218,2.18,-597.82,0.0973
219,2.19,-597.81,0.1364
220,2.2,-597.8,0.1253
221,2.21,-597.79,0.1112
222,2.22,-597.78,0.0658
223,2.23,-597.77,-0.0039
224,2.24,-597.76,-0.0662
225,2.25,-597.75,-0.0497
226,2.26,-597.74,-0.1037
227,2.27,-597.73,-0.0645
228,2.28,-597.72,-0.0109
229,2.29,-597.71,-0.0393
230,2.3,-597.7,-0.0317
231,2.31,-597.69,-0.0614
232,2.32,-597.68,0.9538
233,2.33,-597.67,3.0521
234,2.34,-597.66,4.5528
235,2.35,-597.65,2.0935
236,2.36,-597.64,-0.7013
237,2.37,-597.63,-0.2406
238,2.38,-597.62,-0.0253
239,2.39,-597.61,-0.0537
240,2.4,-597.6,-0.0829
241,2.41,-597.59,-0.0867
242,2.42,-597.58,-0.1012
243,2.43,-597.57,-0.0637
244,2.44,-597.56,-0.0235
245,2.45,-597.55,-0.0741
246,2.46,-597.54,-0.0801
247,2.47,-597.53,-0.0304
248,2.48,-597.52,-0.0006
249,2.49,-597.51,-0.0764
250,2.5,-597.5,-0.0418
251,2.51,-597.49,-0.0347
252,2.52,-597.48,-0.0216
253,2.53,-597.47,-0.0058
254,2.54,-597.46,-0.015
255,2.55,-597.45,-0.0426
256,2.56,-597.44,-0.0176
257,2.57,-597.43,-0.014
258,2.58,-597.42,0.0192
259,2.59,-597.41,0.0894
260,2.6,-597.4,0.1044
261,2.61,-597.39,0.0851
262,2.62,-597.38,0.1636
263,2.63,-597.37,0.2508
264,2.64,-597.36,0.3224
265,2.65,-597.35,0.4015
266,2.66,-597.34,0.4651
267,2.67,-597.33,0.515
268,2.68,-597.32,0.5451
269,2.69,-597.31,0.5635
270,2.7,-597.3,0.5214
271,2.71,-597.29,0.4661
272,2.72,-597.28,0.3332
273,2.73,-597.27,0.2708
274,2.74,-597.26,0.196
275,2.75,-597.25,0.0737
276,2.76,-597.24,0.0816
277,2.77,-597.23,0.0272
278,2.78,-597.22,0.0177
279,2.79,-597.21,0.0158
280,2.8,-597.2,0.0298
281,2.81,-597.19,-0.0063
282,2.82,-597.18,-0.0124
283,2.83,-597.17,-0.0467
284,2.84,-597.16,-0.0425
285,2.85,-597.15,-0.0396
286,2.86,-597.14,-0.0721
287,2.87,-597.13,-0.0684
288,2.88,-597.12,-0.0679
289,2.89,-597.11,-0.0703
290,2.9,-597.1,-0.0221
291,2.91,-597.09,-0.0367
292,2.92,-597.08,-0.0643
293,2.93,-597.07,-0.0128
294,2.94,-597.06,-0.0249
295,2.95,-597.05,-0.0033
296,2.96,-597.04,-0.0157
297,2.97,-597.03,-0.0231
298,2.98,-597.02,-0.0072
299,2.99,-597.01,-0.0111
300,3,-597,-0.0064
301,3.01,-596.99,-0.0127
302,3.02,-596.98,0.0051
303,3.03,-596.97,-0.0013
304,3.04,-596.96,-0.0073
305,3.05,-596.95,-0.0129
306,3.06,-596.94,-0.0204
307,3.07,-596.93,0.0104
308,3.08,-596.92,0.0189
309,3.09,-596.91,0.0553
310,3.1,-596.9,0.0576
311,3.11,-596.89,0.0293
312,3.12,-596.88,-0.0224
313,3.13,-596.87,0.0266
314,3.14,-596.86,0.028
315,3.15,-596.85,0.0145
316,3.16,-596.84,0.0057
317,3.17,-596.83,0.0587
318,3.18,-596.82,0.014
319,3.19,-596.81,0.0097
320,3.2,-596.8,0.025
321,3.21,-596.79,0.0949
322,3.22,-596.78,0.1562
323,3.23,-596.77,0.1714
324,3.24,-596.76,0.2055
325,3.25,-596.75,0.1859
326,3.26,-596.74,0.12
327,3.27,-596.73,0.0704
328,3.28,-596.72,0.0066
329,3.29,-596.71,-0.0095
330,3.3,-596.7,-0.0083
331,3.31,-596.69,-0.0217
332,3.32,-596.68,-0.0496
333,3.33,-596.67,-0.0619
334,3.34,-596.66,-0.0061
335,3.35,-596.65,-0.0556
336,3.36,-596.64,0.2568
337,3.37,-596.63,1.8394
338,3.38,-596.62,4.108
339,3.39,-596.61,4.2419
340,3.4,-596.6,0.4029
341,3.41,-596.59,-0.8216
342,3.42,-596.58,-0.0503
343,3.43,-596.57,-0.0442
344,3.44,-596.56,-0.0789
345,3.45,-596.55,-0.1202
346,3.46,-596.54,-0.1372
347,3.47,-596.53,-0.0939
348,3.48,-596.52,-0.1074
349,3.49,-596.51,-0.0943
350,3.5,-596.5,-0.1127
351,3.51,-596.49,-0.1045
352,3.52,-596.48,-0.0925
353,3.53,-596.47,-0.1042
354,3.54,-596.46,-0.1007
355,3.55,-596.45,-0.0493
356,3.56,-596.44,-0.0963
357,3.57,-596.43,-0.098
358,3.58,-596.42,-0.0785
359,3.59,-596.41,-0.0677
360,3.6,-596.4,-0.0528
361,3.61,-596.39,-0.0157
362,3.62,-596.38,-0.0197
363,3.63,-596.37,-0.011
364,3.64,-596.36,-0.0049
365,3.65,-596.35,0.107
366,3.66,-596.34,0.1389
367,3.67,-596.33,0.1389
368,3.68,-596.32,0.2333
369,3.69,-596.31,0.3286
370,3.7,-596.3,0.3675
371,3.71,-596.29,0.4356
372,3.72,-596.28,0.5004
373,3.73,-596.27,0.5074
374,3.74,-596.26,0.5401
375,3.75,-596.25,0.4712
376,3.76,-596.24,0.349
377,3.77,-596.23,0.2692
378,3.78,-596.22,0.195
379,3.79,-596.21,0.1268
380,3.8,-596.2,0.0913
381,3.81,-596.19,0.0581
382,3.82,-596.18,0.026
383,3.83,-596.17,0.0263
384,3.84,-596.16,0.0149
385,3.85,-596.15,0.0058
386,3.86,-596.14,-0.0327
387,3.87,-596.13,-0.0249
388,3.88,-596.12,-0.0312
389,3.89,-596.11,-0.0322
390,3.9,-596.1,-0.0658
391,3.91,-596.09,-0.0721
392,3.92,-596.08,-0.0762
393,3.93,-596.07,-0.04
394,3.94,-596.06,-0.0283
395,3.95,-596.05,-0.0795
396,3.96,-596.04,-0.0028
397,3.97,-596.03,-0.0022
398,3.98,-596.02,-0.0594
399,3.99,-596.01,-0.0153
400,4,-596,0.0028
401,4.01,-595.99,-0.0458
402,4.02,-595.98,-0.0275
403,4.03,-595.97,-0.0193
404,4.04,-595.96,-0.0199
405,4.05,-595.95,-0.0214
406,4.06,-595.94,-0.0123
407,4.07,-595.93,0.0164
408,4.08,-595.92,-0.0429
409,4.09,-595.91,0.014
410,4.1,-595.9,-0.0456
411,4.11,-595.89,-0.0371
412,4.12,-595.88,0.0257
413,4.13,-595.87,0.0101
414,4.14,-595.86,0.0142
415,4.15,-595.85,0.0076
416,4.16,-595.84,0.0208
417,4.17,-595.83,-0.0134
418,4.18,-595.82,-0.057
419,4.19,-595.81,-0.0034
420,4.2,-595.8,0.023
421,4.21,-595.79,-0.0012
422,4.22,-595.78,0.0259
423,4.23,-595.77,0.046
424,4.24,-595.76,0.0816
425,4.25,-595.75,0.1067
426,4.26,-595.74,0.1539
427,4.27,-595.73,0.1921
428,4.28,-595.72,0.1784
429,4.29,-595.71,0.1602
430,4.3,-595.7,0.0882
431,4.31,-595.69,0.0443
432,4.32,-595.68,0.0208
433,4.33,-595.67,0.0214
434,4.34,-595.66,-0.0263
435,4.35,-595.65,-0.0244
436,4.36,-595.64,-0.0068
437,4.37,-595.63,0.0102
438,4.38,-595.62,-0.022
439,4.39,-595.61,0.429
440,4.4,-595.6,2.1378
441,4.41,-595.59,4.4299
442,4.42,-595.58,4.039
443,4.43,-595.57,0.2188
444,4.44,-595.56,-0.5771
445,4.45,-595.55,-0.0294
446,4.46,-595.54,-0.0678
447,4.47,-595.53,-0.038
448,4.48,-595.52,-0.1014
449,4.49,-595.51,-0.0658
450,4.5,-595.5,-0.1022
451,4.51,-595.49,-0.108
452,4.52,-595.48,-0.0894
453,4.53,-595.47,-0.0869
454,4.54,-595.46,-0.0861
455,4.55,-595.45,-0.0754
456,4.56,-595.44,-0.0751
457,4.57,-595.43,-0.0827
458,4.58,-595.42,-0.0893
459,4.59,-595.41,-0.0703
460,4.6,-595.4,-0.0791
461,4.61,-595.39,-0.07
462,4.62,-595.38,-0.0826
463,4.63,-595.37,-0.0176
464,4.64,-595.36,-0.0021
465,4.65,-595.35,-0.0198
466,4.66,-595.34,0.0456
467,4.67,-595.33,0.0571
468,4.68,-595.32,0.0684
469,4.69,-595.31,0.1207
470,4.7,-595.3,0.1892
471,4.71,-595.29,0.2854
472,4.72,-595.28,0.3495
473,4.73,-595.27,0.3933
474,4.74,-595.26,0.4604
475,4.75,-595.25,0.5068
476,4.76,-595.24,0.5771
477,4.77,-595.23,0.5498
478,4.78,-595.22,0.4979
479,4.79,-595.21,0.3708
480,4.8,-595.2,0.2771
481,4.81,-595.19,0.2039
482,4.82,-595.18,0.147
483,4.83,-595.17,0.1141
484,4.84,-595.16,0.0769
485,4.85,-595.15,0.085
486,4.86,-595.14,0.0622
487,4.87,-595.13,0.0201
488,4.88,-595.12,0.0242
489,4.89,-595.11,0.0311
490,4.9,-595.1,-0.0151
491,4.91,-595.09,-0.0203
492,4.92,-595.08,-0.0227
493,4.93,-595.07,-0.0415
494,4.94,-595.06,-0.0403
495,4.95,-595.05,-0.0416
496,4.96,-595.04,-0.0231
497,4.97,-595.03,-0.0199
498,4.98,-595.02,-0.0226
499,4.99,-595.01,-0.0074
500,5,-595,0.0027
501,5.01,-594.99,-0.0077
502,5.02,-594.98,-0.0145
503,5.03,-594.97,0.0069
504,5.04,-594.96,-0.0247
505,5.05,-594.95,0.0199
506,5.06,-594.94,0.0136
507,5.07,-594.93,-0.0273
508,5.08,-594.92,-0.0162
509,5.09,-594.91,-0.0162
510,5.1,-594.9,-0.0009
511,5.11,-594.89,-0.0415
512,5.12,-594.88,-0.0125
513,5.13,-594.87,0.0112
514,5.14,-594.86,-0.0233
515,5.15,-594.85,-0.0164
516,5.16,-594.84,-0.0185
517,5.17,-594.83,0.0042
518,5.18,-594.82,-0.001
519,5.19,-594.81,0.0166
520,5.2,-594.8,0.0073
521,5.21,-594.79,-0.0047
522,5.22,-594.78,-0.0184
523,5.23,-594.77,-0.0168
524,5.24,-594.76,0.0006
525,5.25,-594.75,0.0053
526,5.26,-594.74,0.0027
527,5.27,-594.73,0.0067
528,5.28,-594.72,0.0016
529,5.29,-594.71,0.0177
530,5.3,-594.7,0.0441
531,5.31,-594.69,0.0056
532,5.32,-594.68,0.0312
533,5.33,-594.67,0.0689
534,5.34,-594.66,0.117
535,5.35,-594.65,0.1809
536,5.36,-594.64,0.1935
537,5.37,-594.63,0.1767
538,5.38,-594.62,0.1425
539,5.39,-594.61,0.0719
540,5.4,-594.6,0.02
541,5.41,-594.59,-0.0169
542,5.42,-594.58,-0.0344
543,5.43,-594.57,-0.0324
544,5.44,-594.56,-0.0278
545,5.45,-594.55,-0.0344
546,5.46,-594.54,0.0047
547,5.47,-594.53,-0.0091
548,5.48,-594.52,0.6049
549,5.49,-594.51,2.4649
550,5.5,-594.5,4.5589
551,5.51,-594.49,3.2057
552,5.52,-594.48,-0.4108
553,5.53,-594.47,-0.4872
554,5.54,-594.46,-0.0444
555,5.55,-594.45,-0.0145
556,5.56,-594.44,-0.044
557,5.57,-594.43,-0.0697
558,5.58,-594.42,-0.0875
559,5.59,-594.41,-0.0709
560,5.6,-594.4,-0.0941
561,5.61,-594.39,-0.066
562,5.62,-594.38,-0.0601
563,5.63,-594.37,-0.0876
564,5.64,-594.36,-0.0945
565,5.65,-594.35,-0.0834
566,5.66,-594.34,-0.0772
567,5.67,-594.33,-0.0943
568,5.68,-594.32,-0.067
569,5.69,-594.31,-0.0739
570,5.7,-594.3,-0.0824
571,5.71,-594.29,-0.0335
572,5.72,-594.28,-0.0087
573,5.73,-594.27,-0.0729
574,5.74,-594.26,-0.0703
575,5.75,-594.25,0.0062
576,5.76,-594.24,0.0384
577,5.77,-594.23,0.0736
578,5.78,-594.22,0.1454
579,5.79,-594.21,0.1891
580,5.8,-594.2,0.266
581,5.81,-594.19,0.3305
582,5.82,-594.18,0.3612
583,5.83,-594.17,0.4307
584,5.84,-594.16,0.4883
585,5.85,-594.15,0.5291
586,5.86,-594.14,0.5182
587,5.87,-594.13,0.4679
588,5.88,-594.12,0.3258
589,5.89,-594.11,0.2358
590,5.9,-594.1,0.1753
591,5.91,-594.09,0.1134
592,5.92,-594.08,0.0815
593,5.93,-594.07,0.0952
594,5.94,-594.06,0.0776
595,5.95,-594.05,0.0209
596,5.96,-594.04,0.0059
597,5.97,-594.03,0.0025
598,5.98,-594.02,0.0281
599,5.99,-594.01,-0.0105
600,6,-594,-0.023
601,6.01,-593.99,-0.0192
602,6.02,-593.98,-0.029
603,6.03,-593.97,-0.0594
604,6.04,-593.96,-0.0431
605,6.05,-593.95,-0.0438
606,6.06,-593.94,-0.031
607,6.07,-593.93,-0.033
608,6.08,-593.92,-0.0296
609,6.09,-593.91,-0.0128
610,6.1,-593.9,-0.0038
611,6.11,-593.89,0.013
612,6.12,-593.88,0.0169
613,6.13,-593.87,-0.026
614,6.14,-593.86,-0.0103
615,6.15,-593.85,0.0009
616,6.16,-593.84,-0.0181
617,6.17,-593.83,0.0018
618,6.18,-593.82,-0.0093
619,6.19,-593.81,-0.0231
620,6.2,-593.8,0.0018
621,6.21,-593.79,-0.0073
622,6.22,-593.78,-0.0474
623,6.23,-593.77,-0.0051
624,6.24,-593.76,0.0007
625,6.25,-593.75,-0.0116
626,6.26,-593.74,0.0054
627,6.27,-593.73,0.0054
628,6.28,-593.72,0.0022
629,6.29,-593.71,0.0152
630,6.3,-593.7,0.0153
631,6.31,-593.69,0.0325
632,6.32,-593.68,0.0193
633,6.33,-593.67,0.0067
634,6.34,-593.66,0.091
635,6.35,-593.65,0.0948
636,6.36,-593.64,0.1335
637,6.37,-593.63,0.2122
638,6.38,-593.62,0.1862
639,6.39,-593.61,0.1976
640,6.4,-593.6,0.1185
641,6.41,-593.59,0.0539
642,6.42,-593.58,-0.0039
643,6.43,-593.57,-0.0086
644,6.44,-593.56,-0.0244
645,6.45,-593.55,-0.0326
646,6.46,-593.54,-0.0115
647,6.47,-593.53,-0.0248
648,6.48,-593.52,-0.0243
649,6.49,-593.51,0.0444
650,6.5,-593.5,1.1518
651,6.51,-593.49,3.3259
652,6.52,-593.48,4.7689
653,6.53,-593.47,1.8669
654,6.54,-593.46,-0.8166
655,6.55,-593.45,-0.1649
656,6.56,-593.44,0.0095
657,6.57,-593.43,-0.0177
658,6.58,-593.42,-0.1098
659,6.59,-593.41,-0.0558
660,6.6,-593.4,-0.0912
661,6.61,-593.39,-0.0485
662,6.62,-593.38,-0.0294
663,6.63,-593.37,-0.0598
664,6.64,-593.36,-0.0799
665,6.65,-593.35,-0.1
666,6.66,-593.34,-0.0582
667,6.67,-593.33,-0.0208
668,6.68,-593.32,-0.0522
669,6.69,-593.31,-0.0833
670,6.7,-593.3,-0.053
671,6.71,-593.29,-0.0309
672,6.72,-593.28,-0.0477
673,6.73,-593.27,-0.0361
674,6.74,-593.26,-0.0505
675,6.75,-593.25,-0.0492
676,6.76,-593.24,0.024
677,6.77,-593.23,0.0144
678,6.78,-593.22,0.0314
679,6.79,-593.21,0.09
680,6.8,-593.2,0.1393
681,6.81,-593.19,0.2396
682,6.82,-593.18,0.2935
683,6.83,-593.17,0.3272
684,6.84,-593.16,0.4054
685,6.85,-593.15,0.4451
686,6.86,-593.14,0.4868
687,6.87,-593.13,0.5059
688,6.88,-593.12,0.471
689,6.89,-593.11,0.3907
690,6.9,-593.1,0.2693
691,6.91,-593.09,0.184
692,6.92,-593.08,0.1204
693,6.93,-593.07,0.0918
694,6.94,-593.06,0.0489
695,6.95,-593.05,0.024
696,6.96,-593.04,0.039
697,6.97,-593.03,0.0304
698,6.98,-593.02,-0.0133
699,6.99,-593.01,-0.0376
700,7,-593,-0.0241
701,7.01,-592.99,-0.0281
702,7.02,-592.98,-0.0379
703,7.03,-592.97,-0.0176
704,7.04,-592.96,-0.032
705,7.05,-592.95,-0.0322
706,7.06,-592.94,-0.0082
707,7.07,-592.93,-0.0461
708,7.08,-592.92,-0.0221
709,7.09,-592.91,0.0086
710,7.1,-592.9,-0.044
711,7.11,-592.89,-0.0286
712,7.12,-592.88,-0.0139
713,7.13,-592.87,-0.0314
714,7.14,-592.86,0.0264
715,7.15,-592.85,-0.0282
716,7.16,-592.84,-0.0363
717,7.17,-592.83,-0.0286
718,7.18,-592.82,-0.0046
719,7.19,-592.81,0.0141
720,7.2,-592.8,-0.0369
721,7.21,-592.79,-0.0121
722,7.22,-592.78,-0.0215
723,7.23,-592.77,-0.0188
724,7.24,-592.76,0.0077
725,7.25,-592.75,-0.012
726,7.26,-592.74,-0.0369
727,7.27,-592.73,0.0967
728,7.28,-592.72,0.0683
729,7.29,-592.71,0.1029
730,7.3,-592.7,0.2025
731,7.31,-592.69,0.1991
732,7.32,-592.68,0.166
733,7.33,-592.67,0.1562
734,7.34,-592.66,0.0697
735,7.35,-592.65,-0.0186
736,7.36,-592.64,-0.0252
737,7.37,-592.63,-0.0077
738,7.38,-592.62,0.0083
739,7.39,-592.61,0.0006
740,7.4,-592.6,0.0029
741,7.41,-592.59,0.0343
742,7.42,-592.58,0.0083
743,7.43,-592.57,0.7203
744,7.44,-592.56,2.6462
745,7.45,-592.55,4.6703
746,7.46,-592.54,2.9135
747,7.47,-592.53,-0.6212
748,7.48,-592.52,-0.4108
749,7.49,-592.51,0.0038
750,7.5,-592.5,-0.0034
751,7.51,-592.49,-0.0673
752,7.52,-592.48,-0.0606
753,7.53,-592.47,-0.0694
754,7.54,-592.46,-0.0605
755,7.55,-592.45,-0.0317
756,7.56,-592.44,-0.0326
757,7.57,-592.43,-0.0477
758,7.58,-592.42,-0.0243
759,7.59,-592.41,-0.0637
760,7.6,-592.4,-0.0585
761,7.61,-592.39,-0.0542
762,7.62,-592.38,-0.0499
763,7.63,-592.37,-0.0308
764,7.64,-592.36,-0.0476
765,7.65,-592.35,-0.0447
766,7.66,-592.34,-0.0226
767,7.67,-592.33,0.0087
768,7.68,-592.32,-0.0182
769,7.69,-592.31,-0.0341
770,7.7,-592.3,0.0391
771,7.71,-592.29,0.0293
772,7.72,-592.28,0.1014
773,7.73,-592.27,0.1582
774,7.74,-592.26,0.2157
775,7.75,-592.25,0.2938
776,7.76,-592.24,0.353
777,7.77,-592.23,0.4119
778,7.78,-592.22,0.4565
779,7.79,-592.21,0.4996
780,7.8,-592.2,0.4935
781,7.81,-592.19,0.5039
782,7.82,-592.18,0.4266
783,7.83,-592.17,0.332
784,7.84,-592.16,0.2305
785,7.85,-592.15,0.1371
786,7.86,-592.14,0.1076
787,7.87,-592.13,0.0678
788,7.88,-592.12,0.0575
789,7.89,-592.11,0.0354
790,7.9,-592.1,0.0521
791,7.91,-592.09,-0.0008
792,7.92,-592.08,-0.0241
793,7.93,-592.07,-0.0081
794,7.94,-592.06,-0.0082
795,7.95,-592.05,-0.0092
796,7.96,-592.04,-0.0244
797,7.97,-592.03,-0.0142
798,7.98,-592.02,-0.0345
799,7.99,-592.01,-0.015
800,8,-592,-0.0102
801,8.01,-591.99,-0.0113
802,8.02,-591.98,-0.0126
803,8.03,-591.97,0.0008
804,8.04,-591.96,0.0436
805,8.05,-591.95,0.0032
806,8.06,-591.94,0.0147
807,8.07,-591.93,-0.0372
808,8.08,-591.92,-0.0221
809,8.09,-591.91,-0.009
810,8.1,-591.9,-0.016
811,8.11,-591.89,-0.011
812,8.12,-591.88,-0.017
813,8.13,-591.87,-0.0295
814,8.14,-591.86,-0.0083
815,8.15,-591.85,-0.0305
816,8.16,-591.84,0.0019
817,8.17,-591.83,-0.0189
818,8.18,-591.82,-0.0279
819,8.19,-591.81,0.0057
820,8.2,-591.8,0.0045
821,8.21,-591.79,-0.0359
822,8.22,-591.78,-0.0212
823,8.23,-591.77,-0.0101
824,8.24,-591.76,0.0047
825,8.25,-591.75,-0.0121
826,8.26,-591.74,-0.0014
827,8.27,-591.73,0.0132
828,8.28,-591.72,0.0423
829,8.29,-591.71,0.087
830,8.3,-591.7,0.1084
831,8.31,-591.69,0.1506
832,8.32,-591.68,0.2293
833,8.33,-591.67,0.181
834,8.34,-591.66,0.1739
835,8.35,-591.65,0.1426
836,8.36,-591.64,0.0549
837,8.37,-591.63,0.0171
838,8.38,-591.62,0.0185
839,8.39,-591.61,0.0174
840,8.4,-591.6,0.0028
841,8.41,-591.59,0.0138
842,8.42,-591.58,0.0058
843,8.43,-591.57,0.0435
844,8.44,-591.56,0.0703
845,8.45,-591.55,1.2127
846,8.46,-591.54,3.3357
847,8.47,-591.53,4.7132
848,8.48,-591.52,1.9001
849,8.49,-591.51,-0.7081
850,8.5,-591.5,-0.1549
851,8.51,-591.49,-0.0188
852,8.52,-591.48,-0.0062
853,8.53,-591.47,-0.0818
854,8.54,-591.46,-0.0678
855,8.55,-591.45,-0.0658
856,8.56,-591.44,-0.0627
857,8.57,-591.43,-0.0435
858,8.58,-591.42,-0.0517
859,8.59,-591.41,-0.0823
860,8.6,-591.4,-0.0605
861,8.61,-591.39,-0.05
862,8.62,-591.38,-0.0529
863,8.63,-591.37,-0.0519
864,8.64,-591.36,-0.064
865,8.65,-591.35,-0.0579
866,8.66,-591.34,-0.0594
867,8.67,-591.33,-0.0588
868,8.68,-591.32,-0.0373
869,8.69,-591.31,-0.0154
870,8.7,-591.3,-0.0158
871,8.71,-591.29,-0.0039
872,8.72,-591.28,0.0014
873,8.73,-591.27,0.0359
874,8.74,-591.26,0.0635
875,8.75,-591.25,0.1496
876,8.76,-591.24,0.2039
877,8.77,-591.23,0.2785
878,8.78,-591.22,0.3587
879,8.79,-591.21,0.4051
880,8.8,-591.2,0.4443
881,8.81,-591.19,0.503
882,8.82,-591.18,0.5267
883,8.83,-591.17,0.4774
884,8.84,-591.16,0.3865
885,8.85,-591.15,0.3391
886,8.86,-591.14,0.2145
887,8.87,-591.13,0.1499
888,8.88,-591.12,0.1208
889,8.89,-591.11,0.0949
890,8.9,-591.1,0.0432
891,8.91,-591.09,0.0717
892,8.92,-591.08,0.0321
893,8.93,-591.07,0.0173
894,8.94,-591.06,0.0189
895,8.95,-591.05,-0.0217
896,8.96,-591.04,0.0076
897,8.97,-591.03,-0.0212
898,8.98,-591.02,-0.0435
899,8.99,-591.01,-0.0253
900,9,-591,-0.0777
901,9.01,-590.99,-0.0346
902,9.02,-590.98,-0.0437
903,9.03,-590.97,-0.0232
904,9.04,-590.96,-0.0187
905,9.05,-590.95,-0.019
906,9.06,-590.94,-0.0198
907,9.07,-590.93,-0.018
908,9.08,-590.92,-0.0055
909,9.09,-590.91,-0.0121
910,9.1,-590.9,0.0007
911,9.11,-590.89,0.0153
912,9.12,-590.88,-0.0108
913,9.13,-590.87,0.0005
914,9.14,-590.86,-0.0056
915,9.15,-590.85,-0.0249
916,9.16,-590.84,0.0217
917,9.17,-590.83,-0.0131
918,9.18,-590.82,-0.0323
919,9.19,-590.81,-0.0157
920,9.2,-590.8,-0.0353
921,9.21,-590.79,0.0023
922,9.22,-590.78,-0.0006
923,9.23,-590.77,0.0002
924,9.24,-590.76,0.0005
925,9.25,-590.75,-0.0054
926,9.26,-590.74,-0.0241
927,9.27,-590.73,-0.0185
928,9.28,-590.72,-0.0249
929,9.29,-590.71,-0.0133
930,9.3,-590.7,-0.01
931,9.31,-590.69,-0.0255
932,9.32,-590.68,0.0128
933,9.33,-590.67,-0.0019
934,9.34,-590.66,-0.0042
935,9.35,-590.65,0.0111
936,9.36,-590.64,0.0019
937,9.37,-590.63,-0.004
938,9.38,-590.62,0.0347
939,9.39,-590.61,0.0071
940,9.4,-590.6,-0.003
941,9.41,-590.59,0.039
942,9.42,-590.58,0.0355
943,9.43,-590.57,0.024
944,9.44,-590.56,-0.0033
945,9.45,-590.55,0.0717
946,9.46,-590.54,0.0941
947,9.47,-590.53,0.1226
948,9.48,-590.52,0.1571
949,9.49,-590.51,0.18
950,9.5,-590.5,0.1964
951,9.51,-590.49,0.1942
952,9.52,-590.48,0.1403
953,9.53,-590.47,0.0966
954,9.54,-590.46,0.0248
955,9.55,-590.45,0.0095
956,9.56,-590.44,0.0237
957,9.57,-590.43,-0.0072
958,9.58,-590.42,0.0163
959,9.59,-590.41,0.0012
960,9.6,-590.4,0.032
961,9.61,-590.39,0.0698
962,9.62,-590.38,1.1108
963,9.63,-590.37,3.1801
964,9.64,-590.36,4.745
965,9.65,-590.35,2.1996
966,9.66,-590.34,-0.6129
967,9.67,-590.33,-0.1022
968,9.68,-590.32,-0.0422
969,9.69,-590.31,-0.006
970,9.7,-590.3,-0.0765
971,9.71,-590.29,-0.0692
972,9.72,-590.28,-0.0611
973,9.73,-590.27,-0.0788
974,9.74,-590.26,-0.0646
975,9.75,-590.25,-0.0591
976,9.76,-590.24,-0.0478
977,9.77,-590.23,-0.0334
978,9.78,-590.22,-0.0764
979,9.79,-590.21,-0.0494
980,9.8,-590.2,-0.067
981,9.81,-590.19,-0.0651
982,9.82,-590.18,-0.0424
983,9.83,-590.17,-0.0671
984,9.84,-590.16,-0.0655
985,9.85,-590.15,-0.1046
986,9.86,-590.14,-0.0728
987,9.87,-590.13,0.004
988,9.88,-590.12,-0.0179
989,9.89,-590.11,-0.0565
990,9.9,-590.1,-0.0094
991,9.91,-590.09,0.1156
992,9.92,-590.08,0.1022
993,9.93,-590.07,0.1198
994,9.94,-590.06,0.2174
995,9.95,-590.05,0.3171
996,9.96,-590.04,0.3385
997,9.97,-590.03,0.4551
998,9.98,-590.02,0.4681
999,9.99,-590.01,0.4501
1000,10,-590,0.4256
1001,10.01,-589.99,0.385
1002,10.02,-589.98,0.2864
1003,10.03,-589.97,0.2189
1004,10.04,-589.96,0.1035
1005,10.05,-589.95,0.1205
1006,10.06,-589.94,0.0536
1007,10.07,-589.93,0.019
1008,10.08,-589.92,0.0255
1009,10.09,-589.91,0.0054
1010,10.1,-589.9,0.0529
1011,10.11,-589.89,-0.0652
1012,10.12,-589.88,0.0764
1013,10.13,-589.87,-0.055
1014,10.14,-589.86,-0.083
1015,10.15,-589.85,0.0294
1016,10.16,-589.84,-0.0895
1017,10.17,-589.83,-0.082
1018,10.18,-589.82,-0.0553
1019,10.19,-589.81,-0.0385
1020,10.2,-589.8,0.0059
1021,10.21,-589.79,-0.036
1022,10.22,-589.78,-0.011
1023,10.23,-589.77,-0.0071
1024,10.24,-589.76,0.0099
1025,10.25,-589.75,-0.0284
1026,10.26,-589.74,-0.03
1027,10.27,-589.73,-0.058
1028,10.28,-589.72,0.0107
1029,10.29,-589.71,0.0691
1030,10.3,-589.7,-0.0223
1031,10.31,-589.69,-0.0531
1032,10.32,-589.68,-0.0005
1033,10.33,-589.67,-0.0024
1034,10.34,-589.66,0.0015
1035,10.35,-589.65,0.0071
1036,10.36,-589.64,-0.029
1037,10.37,-589.63,0.0272
1038,10.38,-589.62,-0.0228
1039,10.39,-589.61,-0.0211
1040,10.4,-589.6,-0.0019
1041,10.41,-589.59,0.0225
1042,10.42,-589.58,0.0102
1043,10.43,-589.57,-0.039
1044,10.44,-589.56,-0.0156
1045,10.45,-589.55,-0.0441
1046,10.46,-589.54,-0.0145
1047,10.47,-589.53,0.0036
1048,10.48,-589.52,0.0032
1049,10.49,-589.51,-0.0549
1050,10.5,-589.5,-0.0187
1051,10.51,-589.49,0.0273
1052,10.52,-589.48,0.0047
1053,10.53,-589.47,-0.0174
1054,10.54,-589.46,-0.0134
1055,10.55,-589.45,0.0137
1056,10.56,-589.44,-0.0075
1057,10.57,-589.43,-0.0233
1058,10.58,-589.42,-0.0025
1059,10.59,-589.41,0.0106
1060,10.6,-589.4,-0.007
1061,10.61,-589.39,0.0219
1062,10.62,-589.38,-0.0238
1063,10.63,-589.37,0.0117
1064,10.64,-589.36,-0.0082
1065,10.65,-589.35,-0.0224
1066,10.66,-589.34,0.0405
1067,10.67,-589.33,-0.0051
1068,10.68,-589.32,0.0188
1069,10.69,-589.31,0.015
1070,10.7,-589.3,0.0397
1071,10.71,-589.29,0.1214
1072,10.72,-589.28,0.1027
1073,10.73,-589.27,0.1388
1074,10.74,-589.26,0.2069
1075,10.75,-589.25,0.1967
1076,10.76,-589.24,0.208
1077,10.77,-589.23,0.1171
1078,10.78,-589.22,0.0877
1079,10.79,-589.21,-0.011
1080,10.8,-589.2,0.0119
1081,10.81,-589.19,-0.0146
1082,10.82,-589.18,-0.0036
1083,10.83,-589.17,0.0061
1084,10.84,-589.16,-0.0222
1085,10.85,-589.15,0.0127
1086,10.86,-589.14,0.2273
1087,10.87,-589.13,1.6155
1088,10.88,-589.12,3.7618
1089,10.89,-589.11,4.2689
1090,10.9,-589.1,0.9417
1091,10.91,-589.09,-0.6366
1092,10.92,-589.08,-0.022
1093,10.93,-589.07,-0.0184
1094,10.94,-589.06,-0.0647
1095,10.95,-589.05,-0.0912
1096,10.96,-589.04,-0.0684
1097,10.97,-589.03,-0.05
1098,10.98,-589.02,-0.0978
1099,10.99,-589.01,-0.1171
1100,11,-589,-0.0404
1101,11.01,-588.99,-0.0964
1102,11.02,-588.98,-0.0965
1103,11.03,-588.97,-0.0659
1104,11.04,-588.96,-0.0535
1105,11.05,-588.95,-0.09
1106,11.06,-588.94,-0.0303
1107,11.07,-588.93,-0.0622
1108,11.08,-588.92,-0.0685
1109,11.09,-588.91,-0.0504
1110,11.1,-588.9,-0.0369
1111,11.11,-588.89,-0.0263
1112,11.12,-588.88,-0.021
1113,11.13,-588.87,-0.0093
1114,11.14,-588.86,0.0273
1115,11.15,-588.85,0.0654
1116,11.16,-588.84,0.08
1117,11.17,-588.83,0.1794
1118,11.18,-588.82,0.2182
1119,11.19,-588.81,0.3077
1120,11.2,-588.8,0.354
1121,11.21,-588.79,0.4213
1122,11.22,-588.78,0.4622
1123,11.23,-588.77,0.5007
1124,11.24,-588.76,0.5519
1125,11.25,-588.75,0.5014
1126,11.26,-588.74,0.425
1127,11.27,-588.73,0.3421
1128,11.28,-588.72,0.2145
1129,11.29,-588.71,0.1875
1130,11.3,-588.7,0.1754
1131,11.31,-588.69,0.1046
1132,11.32,-588.68,0.0823
1133,11.33,-588.67,0.0834
1134,11.34,-588.66,0.0652
1135,11.35,-588.65,0.0346
1136,11.36,-588.64,0.0346
1137,11.37,-588.63,0.0054
1138,11.38,-588.62,-0.0031
1139,11.39,-588.61,-0.0099
1140,11.4,-588.6,-0.0217
1141,11.41,-588.59,0.0308
1142,11.42,-588.58,-0.0472
1143,11.43,-588.57,0.004
1144,11.44,-588.56,-0.0246
1145,11.45,-588.55,-0.0087
1146,11.46,-588.54,-0.0094
1147,11.47,-588.53,-0.0055
1148,11.48,-588.52,0.0061
1149,11.49,-588.51,0.0035
1150,11.5,-588.5,0.0051
1151,11.51,-588.49,0.0079
1152,11.52,-588.48,0.0196
1153,11.53,-588.47,0.0185
1154,11.54,-588.46,0.0112
1155,11.55,-588.45,-0.0149
1156,11.56,-588.44,-0.0064
1157,11.57,-588.43,-0.0082
1158,11.58,-588.42,-0.0073
1159,11.59,-588.41,-0.0031
1160,11.6,-588.4,0.0028
1161,11.61,-588.39,-0.0531
1162,11.62,-588.38,0.0172
1163,11.63,-588.37,0.0003
1164,11.64,-588.36,-0.0319
1165,11.65,-588.35,-0.0088
1166,11.66,-588.34,-0.0127
1167,11.67,-588.33,-0.008
1168,11.68,-588.32,0.0037
1169,11.69,-588.31,-0.0047
1170,11.7,-588.3,-0.0225
1171,11.71,-588.29,-0.002
1172,11.72,-588.28,0.001
1173,11.73,-588.27,-0.0168
1174,11.74,-588.26,-0.0188
1175,11.75,-588.25,-0.0003
1176,11.76,-588.24,0.0037
1177,11.77,-588.23,0.0097
1178,11.78,-588.22,-0.0149
1179,11.79,-588.21,-0.0367
1180,11.8,-588.2,-0.017
1181,11.81,-588.19,-0.0022
1182,11.82,-588.18,-0.0113
1183,11.83,-588.17,-0.0117
1184,11.84,-588.16,-0.0103
1185,11.85,-588.15,-0.009
1186,11.86,-588.14,-0.0184
1187,11.87,-588.13,-0.0108
1188,11.88,-588.12,0.0502
1189,11.89,-588.11,0.0653
1190,11.9,-588.1,0.073
1191,11.91,-588.09,0.1752
1192,11.92,-588.08,0.1706
1193,11.93,-588.07,0.1426
1194,11.94,-588.06,0.0675
1195,11.95,-588.05,0.0386
1196,11.96,-588.04,-0.0211
1197,11.97,-588.03,-0.0317
1198,11.98,-588.02,-0.0057
1199,11.99,-588.01,0.007
1200,12,-588,-0.0287
1201,12.01,-587.99,0.0061
1202,12.02,-587.98,-0.0172
1203,12.03,-587.97,0.1225
1204,12.04,-587.96,1.5316
1205,12.05,-587.95,3.649
1206,12.06,-587.94,4.1221
1207,12.07,-587.93,0.529
1208,12.08,-587.92,-0.8394
1209,12.09,-587.91,-0.0124
1210,12.1,-587.9,-0.049
1211,12.11,-587.89,-0.0268
1212,12.12,-587.88,-0.0735
1213,12.13,-587.87,-0.0666
1214,12.14,-587.86,-0.0421
1215,12.15,-587.85,-0.0148
1216,12.16,-587.84,-0.0704
1217,12.17,-587.83,-0.0512
1218,12.18,-587.82,-0.0508
1219,12.19,-587.81,-0.0694
1220,12.2,-587.8,-0.0577
1221,12.21,-587.79,-0.035
1222,12.22,-587.78,-0.0391
1223,12.23,-587.77,-0.0402
1224,12.24,-587.76,-0.0396
1225,12.25,-587.75,-0.046
1226,12.26,-587.74,-0.0311
1227,12.27,-587.73,-0.0384
1228,12.28,-587.72,-0.0142
1229,12.29,-587.71,-0.0246
1230,12.3,-587.7,0.0129
1231,12.31,-587.69,0.0334
1232,12.32,-587.68,0.0494
1233,12.33,-587.67,0.1184
1234,12.34,-587.66,0.1398
1235,12.35,-587.65,0.2308
1236,12.36,-587.64,0.2689
1237,12.37,-587.63,0.2974
1238,12.38,-587.62,0.3383
1239,12.39,-587.61,0.3736
1240,12.4,-587.6,0.4254
1241,12.41,-587.59,0.4243
1242,12.42,-587.58,0.4191
1243,12.43,-587.57,0.3606
1244,12.44,-587.56,0.2797
1245,12.45,-587.55,0.186
1246,12.46,-587.54,0.1175
1247,12.47,-587.53,0.0858
1248,12.48,-587.52,0.0426
1249,12.49,-587.51,0.0146
1250,12.5,-587.5,-0.0044
1251,12.51,-587.49,0.0166
1252,12.52,-587.48,0.0012
1253,12.53,-587.47,-0.0016
1254,12.54,-587.46,-0.0393
1255,12.55,-587.45,-0.0093
1256,12.56,-587.44,-0.0399
1257,12.57,-587.43,-0.0242
1258,12.58,-587.42,0.0087
1259,12.59,-587.41,-0.0449
1260,12.6,-587.4,-0.0044
1261,12.61,-587.39,0.0014
1262,12.62,-587.38,-0.0142
1263,12.63,-587.37,0.0034
1264,12.64,-587.36,0.0095
1265,12.65,-587.35,0.0101
1266,12.66,-587.34,-0.0004
1267,12.67,-587.33,-0.0136
1268,12.68,-587.32,-0.0092
1269,12.69,-587.31,-0.0125
1270,12.7,-587.3,-0.0013
1271,12.71,-587.29,0.003
1272,12.72,-587.28,-0.0235
1273,12.73,-587.27,-0.0044
1274,12.74,-587.26,-0.0014
1275,12.75,-587.25,-0.0658
1276,12.76,-587.24,-0.0177
1277,12.77,-587.23,-0.0238
1278,12.78,-587.22,-0.0046
1279,12.79,-587.21,-0.0131
1280,12.8,-587.2,0.0177
1281,12.81,-587.19,0.0156
1282,12.82,-587.18,-0.0269
1283,12.83,-587.17,0.0147
1284,12.84,-587.16,-0.0084
1285,12.85,-587.15,-0.0222
1286,12.86,-587.14,-0.0005
1287,12.87,-587.13,-0.0107
1288,12.88,-587.12,0.0069
1289,12.89,-587.11,0.0167
1290,12.9,-587.1,-0.0124
1291,12.91,-587.09,0.0402
1292,12.92,-587.08,0.0492
1293,12.93,-587.07,0.0483
1294,12.94,-587.06,0.0916
1295,12.95,-587.05,0.1095
1296,12.96,-587.04,0.1794
1297,12.97,-587.03,0.1901
1298,12.98,-587.02,0.148
1299,12.99,-587.01,0.1111
1300,13,-587,0.0911
1301,13.01,-586.99,0.0246
1302,13.02,-586.98,-0.0431
1303,13.03,-586.97,0
1304,13.04,-586.96,-0.006
1305,13.05,-586.95,0.0064
1306,13.06,-586.94,-0.0129
1307,13.07,-586.93,0.0254
1308,13.08,-586.92,0.0993
1309,13.09,-586.91,1.1185
1310,13.1,-586.9,3.1869
1311,13.11,-586.89,4.5204
1312,13.12,-586.88,1.6067
1313,13.13,-586.87,-0.8398
1314,13.14,-586.86,-0.2073
1315,13.15,-586.85,-0.0303
1316,13.16,-586.84,-0.0305
1317,13.17,-586.83,-0.0869
1318,13.18,-586.82,-0.0845
1319,13.19,-586.81,-0.1282
1320,13.2,-586.8,-0.0743
1321,13.21,-586.79,-0.0811
1322,13.22,-586.78,-0.1007
1323,13.23,-586.77,-0.0644
1324,13.24,-586.76,-0.0684
1325,13.25,-586.75,-0.1001
1326,13.26,-586.74,-0.0781
1327,13.27,-586.73,-0.0872
1328,13.28,-586.72,-0.0885
1329,13.29,-586.71,-0.0534
1330,13.3,-586.7,-0.0749
1331,13.31,-586.69,-0.0658
1332,13.32,-586.68,-0.0736
1333,13.33,-586.67,-0.0559
1334,13.34,-586.66,-0.0177
1335,13.35,-586.65,0.0118
1336,13.36,-586.64,0.0113
1337,13.37,-586.63,0.0556
1338,13.38,-586.62,0.0971
1339,13.39,-586.61,0.1366
1340,13.4,-586.6,0.2361
1341,13.41,-586.59,0.301
1342,13.42,-586.58,0.3778
1343,13.43,-586.57,0.404
1344,13.44,-586.56,0.4678
1345,13.45,-586.55,0.4522
1346,13.46,-586.54,0.4992
1347,13.47,-586.53,0.4896
1348,13.48,-586.52,0.3975
1349,13.49,-586.51,0.3129
1350,13.5,-586.5,0.2633
1351,13.51,-586.49,0.1322
1352,13.52,-586.48,0.0985
1353,13.53,-586.47,0.078
1354,13.54,-586.46,0.068
1355,13.55,-586.45,0.021
1356,13.56,-586.44,0.0185
1357,13.57,-586.43,-0.007
1358,13.58,-586.42,-0.0246
1359,13.59,-586.41,0.0154
1360,13.6,-586.4,-0.057
1361,13.61,-586.39,-0.0215
1362,13.62,-586.38,-0.0023
1363,13.63,-586.37,-0.0207
1364,13.64,-586.36,-0.0117
1365,13.65,-586.35,-0.0198
1366,13.66,-586.34,-0.0023
1367,13.67,-586.33,0.0049
1368,13.68,-586.32,-0.0068
1369,13.69,-586.31,-0.0004
1370,13.7,-586.3,0.0321
1371,13.71,-586.29,0.0104
1372,13.72,-586.28,-0.0228
1373,13.73,-586.27,-0.024
1374,13.74,-586.26,-0.0028
1375,13.75,-586.25,0.0144
1376,13.76,-586.24,-0.0287
1377,13.77,-586.23,-0.0012
1378,13.78,-586.22,0.0031
1379,13.79,-586.21,-0.0234
1380,13.8,-586.2,-0.0315
1381,13.81,-586.19,0.0065
1382,13.82,-586.18,-0.0171
1383,13.83,-586.17,-0.0285
1384,13.84,-586.16,-0.0065
1385,13.85,-586.15,0.0209
1386,13.86,-586.14,-0.0059
1387,13.87,-586.13,-0.0026
1388,13.88,-586.12,-0.0022
1389,13.89,-586.11,-0.0016
1390,13.9,-586.1,0.001
1391,13.91,-586.09,-0.0127
1392,13.92,-586.08,-0.0049
1393,13.93,-586.07,0.0112
1394,13.94,-586.06,0.0207
1395,13.95,-586.05,0.0507
1396,13.96,-586.04,0.0886
1397,13.97,-586.03,0.13
1398,13.98,-586.02,0.1555
1399,13.99,-586.01,0.1712
1400,14,-586,0.1579
1401,14.01,-585.99,0.131
1402,14.02,-585.98,0.0549
1403,14.03,-585.97,-0.0174
1404,14.04,-585.96,0.0002
1405,14.05,-585.95,-0.0291
1406,14.06,-585.94,-0.0568
1407,14.07,-585.93,-0.0563
1408,14.08,-585.92,-0.0081
1409,14.09,-585.91,0.0028
1410,14.1,-585.9,-0.0298
1411,14.11,-585.89,0.8087
1412,14.12,-585.88,2.7192
1413,14.13,-585.87,4.5879
1414,14.14,-585.86,2.8199
1415,14.15,-585.85,-0.4656
1416,14.16,-585.84,-0.3161
1417,14.17,-585.83,-0.0541
1418,14.18,-585.82,-0.0566
1419,14.19,-585.81,-0.0804
1420,14.2,-585.8,-0.0719
1421,14.21,-585.79,-0.0967
1422,14.22,-585.78,-0.0596
1423,14.23,-585.77,-0.0724
1424,14.24,-585.76,-0.0722
1425,14.25,-585.75,-0.0674
1426,14.26,-585.74,-0.0899
1427,14.27,-585.73,-0.0713
1428,14.28,-585.72,-0.0753
1429,14.29,-585.71,-0.0558
1430,14.3,-585.7,-0.0877
1431,14.31,-585.69,-0.0951
1432,14.32,-585.68,-0.0413
1433,14.33,-585.67,-0.0309
1434,14.34,-585.66,-0.0732
1435,14.35,-585.65,-0.0284
1436,14.36,-585.64,-0.0122
1437,14.37,-585.63,-0.0485
1438,14.38,-585.62,0.0131
1439,14.39,-585.61,0.0551
1440,14.4,-585.6,0.0825
1441,14.41,-585.59,0.1499
1442,14.42,-585.58,0.2079
1443,14.43,-585.57,0.2888
1444,14.44,-585.56,0.3397
1445,14.45,-585.55,0.3737
1446,14.46,-585.54,0.4567
1447,14.47,-585.53,0.4878
1448,14.48,-585.52,0.5094
1449,14.49,-585.51,0.4921
1450,14.5,-585.5,0.4753
1451,14.51,-585.49,0.3269
1452,14.52,-585.48,0.2267
1453,14.53,-585.47,0.1808
1454,14.54,-585.46,0.1006
1455,14.55,-585.45,0.1054
1456,14.56,-585.44,0.091
1457,14.57,-585.43,0.0693
1458,14.58,-585.42,0.0614
1459,14.59,-585.41,0.0332
1460,14.6,-585.4,0.0237
1461,14.61,-585.39,0.0178
1462,14.62,-585.38,0.0493
1463,14.63,-585.37,-0.0324
1464,14.64,-585.36,-0.0437
1465,14.65,-585.35,-0.022
1466,14.66,-585.34,-0.0687
1467,14.67,-585.33,-0.0723
1468,14.68,-585.32,-0.0439
1469,14.69,-585.31,-0.016
1470,14.7,-585.3,-0.013
1471,14.71,-585.29,-0.0146
1472,14.72,-585.28,-0.0151
1473,14.73,-585.27,-0.0062
1474,14.74,-585.26,0.0368
1475,14.75,-585.25,-0.0187
1476,14.76,-585.24,-0.0384
1477,14.77,-585.23,-0.0514
1478,14.78,-585.22,-0.0102
1479,14.79,-585.21,-0.0015
1480,14.8,-585.2,-0.0344
1481,14.81,-585.19,-0.0027
1482,14.82,-585.18,0
1483,14.83,-585.17,-0.0161
1484,14.84,-585.16,-0.0218
1485,14.85,-585.15,-0.0022
1486,14.86,-585.14,-0.0309
1487,14.87,-585.13,0.0124
1488,14.88,-585.12,-0.002
1489,14.89,-585.11,0.0353
1490,14.9,-585.1,0.0337
1491,14.91,-585.09,-0.024
1492,14.92,-585.08,0.0121
1493,14.93,-585.07,0.0262
1494,14.94,-585.06,-0.0173
1495,14.95,-585.05,-0.0083
1496,14.96,-585.04,-0.0049
1497,14.97,-585.03,-0.0172
1498,14.98,-585.02,-0.0103
1499,14.99,-585.01,-0.0154
1500,15,-585,-0.0284
1501,15.01,-584.99,-0.0359
1502,15.02,-584.98,0.0132
1503,15.03,-584.97,0.0116
1504,15.04,-584.96,-0.0069
1505,15.05,-584.95,0.0191
1506,15.06,-584.94,0.0628
1507,15.07,-584.93,0.1277
1508,15.08,-584.92,0.1413
1509,15.09,-584.91,0.1724
1510,15.1,-584.9,0.2317
1511,15.11,-584.89,0.1948
1512,15.12,-584.88,0.1081
1513,15.13,-584.87,0.0436
1514,15.14,-584.86,0.0222
1515,15.15,-584.85,-0.0215
1516,15.16,-584.84,-0
1517,15.17,-584.83,0.0171
1518,15.18,-584.82,0.0276
1519,15.19,-584.81,0.0259
1520,15.2,-584.8,0.0265
1521,15.21,-584.79,0.321
1522,15.22,-584.78,1.7631
1523,15.23,-584.77,3.9229
1524,15.24,-584.76,3.9874
1525,15.25,-584.75,0.5177
1526,15.26,-584.74,-0.5431
1527,15.27,-584.73,0.0123
1528,15.28,-584.72,0.0032
1529,15.29,-584.71,-0.0317
1530,15.3,-584.7,-0.0459
1531,15.31,-584.69,-0.0416
1532,15.32,-584.68,-0.0415
1533,15.33,-584.67,-0.0403
1534,15.34,-584.66,-0.09
1535,15.35,-584.65,-0.03
1536,15.36,-584.64,-0.0505
1537,15.37,-584.63,-0.0843
1538,15.38,-584.62,-0.066
1539,15.39,-584.61,-0.071
1540,15.4,-584.6,-0.0682
1541,15.41,-584.59,-0.048
1542,15.42,-584.58,-0.0612
1543,15.43,-584.57,-0.0613
1544,15.44,-584.56,-0.0725
1545,15.45,-584.55,0.0022
1546,15.46,-584.54,-0.0476
1547,15.47,-584.53,-0.0354
1548,15.48,-584.52,0.0036
1549,15.49,-584.51,0.0235
1550,15.5,-584.5,0.0584
1551,15.51,-584.49,0.1276
1552,15.52,-584.48,0.1817
1553,15.53,-584.47,0.2194
1554,15.54,-584.46,0.329
1555,15.55,-584.45,0.4102
1556,15.56,-584.44,0.438
1557,15.57,-584.43,0.4825
1558,15.58,-584.42,0.5092
1559,15.59,-584.41,0.5201
1560,15.6,-584.4,0.4656
1561,15.61,-584.39,0.3716
1562,15.62,-584.38,0.3051
1563,15.63,-584.37,0.1924
1564,15.64,-584.36,0.1323
1565,15.65,-584.35,0.1179
1566,15.66,-584.34,0.0905
1567,15.67,-584.33,0.0504
1568,15.68,-584.32,0.0556
1569,15.69,-584.31,0.058
1570,15.7,-584.3,0.0292
1571,15.71,-584.29,0.0044
1572,15.72,-584.28,-0.0007
1573,15.73,-584.27,-0.0247
1574,15.74,-584.26,-0.0046
1575,15.75,-584.25,-0.0281
1576,15.76,-584.24,-0.0571
1577,15.77,-584.23,-0.0431
1578,15.78,-584.22,-0.0246
1579,15.79,-584.21,-0.049
1580,15.8,-584.2,-0.0069
1581,15.81,-584.19,-0.0038
1582,15.82,-584.18,-0.0117
1583,15.83,-584.17,-0.0092
1584,15.84,-584.16,0.0119
1585,15.85,-584.15,0.0235
1586,15.86,-584.14,-0.0156
1587,15.87,-584.13,-0.014
1588,15.88,-584.12,-0.026
1589,15.89,-584.11,0.0045
1590,15.9,-584.1,0.0281
1591,15.91,-584.09,-0.004
1592,15.92,-584.08,0.0045
1593,15.93,-584.07,-0.0195
1594,15.94,-584.06,-0.0167
1595,15.95,-584.05,-0.0044
1596,15.96,-584.04,0.007
1597,15.97,-584.03,-0.0028
1598,15.98,-584.02,-0.0195
1599,15.99,-584.01,-0.0018
1600,16,-584,-0.0112
1601,16.01,-583.99,-0.0203
1602,16.02,-583.98,-0.0034
1603,16.03,-583.97,-0.0069
1604,16.04,-583.96,-0.0364
1605,16.05,-583.95,-0.0306
1606,16.06,-583.94,-0.0033
1607,16.07,-583.93,0.0079
1608,16.08,-583.92,0.005
1609,16.09,-583.91,0.0088
1610,16.1,-583.9,-0.0016
1611,16.11,-583.89,-0.0164
1612,16.12,-583.88,0.0092
1613,16.13,-583.87,-0.0214
1614,16.14,-583.86,-0.0128
1615,16.15,-583.85,0.0168
1616,16.16,-583.84,0.0227
1617,16.17,-583.83,0.0456
1618,16.18,-583.82,0.0748
1619,16.19,-583.81,0.072
1620,16.2,-583.8,0.0918
1621,16.21,-583.79,0.1513
1622,16.22,-583.78,0.203
1623,16.23,-583.77,0.1661
1624,16.24,-583.76,0.1148
1625,16.25,-583.75,0.0627
1626,16.26,-583.74,-0.0145
1627,16.27,-583.73,-0.0096
1628,16.28,-583.72,0.0098
1629,16.29,-583.71,-0.0175
1630,16.3,-583.7,-0.0074
1631,16.31,-583.69,-0.0181
1632,16.32,-583.68,0.0084
1633,16.33,-583.67,-0.0081
1634,16.34,-583.66,0.7997
1635,16.35,-583.65,2.7624
1636,16.36,-583.64,4.3981
1637,16.37,-583.63,2.3014
1638,16.38,-583.62,-0.5898
1639,16.39,-583.61,-0.2377
1640,16.4,-583.6,-0.0391
1641,16.41,-583.59,-0.0395
1642,16.42,-583.58,-0.1066
1643,16.43,-583.57,-0.0838
1644,16.44,-583.56,-0.0872
1645,16.45,-583.55,-0.1007
1646,16.46,-583.54,-0.0768
1647,16.47,-583.53,-0.1136
1648,16.48,-583.52,-0.0593
1649,16.49,-583.51,-0.0724
1650,16.5,-583.5,-0.0707
1651,16.51,-583.49,-0.0973
1652,16.52,-583.48,-0.1066
1653,16.53,-583.47,-0.1129
1654,16.54,-583.46,-0.0733
1655,16.55,-583.45,-0.1004
1656,16.56,-583.44,-0.0632
1657,16.57,-583.43,-0.064
1658,16.58,-583.42,-0.0411
1659,16.59,-583.41,-0.027
1660,16.6,-583.4,-0.0321
1661,16.61,-583.39,-0.0011
1662,16.62,-583.38,0.015
1663,16.63,-583.37,0.0773
1664,16.64,-583.36,0.1438
1665,16.65,-583.35,0.1764
1666,16.66,-583.34,0.2817
1667,16.67,-583.33,0.3163
1668,16.68,-583.32,0.3822
1669,16.69,-583.31,0.4557
1670,16.7,-583.3,0.4958
1671,16.71,-583.29,0.5047
1672,16.72,-583.28,0.47
1673,16.73,-583.27,0.4412
1674,16.74,-583.26,0.2715
1675,16.75,-583.25,0.2129
1676,16.76,-583.24,0.1938
1677,16.77,-583.23,0.1329
1678,16.78,-583.22,0.034
1679,16.79,-583.21,0.0184
1680,16.8,-583.2,0.007
1681,16.81,-583.19,0.0166
1682,16.82,-583.18,0.0269
1683,16.83,-583.17,-0.0248
1684,16.84,-583.16,0.0062
1685,16.85,-583.15,0.0025
1686,16.86,-583.14,-0.0026
1687,16.87,-583.13,-0.0128
1688,16.88,-583.12,-0.0452
1689,16.89,-583.11,-0.0581
1690,16.9,-583.1,-0.0319
1691,16.91,-583.09,0.0037
1692,16.92,-583.08,0.0277
1693,16.93,-583.07,-0.0055
1694,16.94,-583.06,-0.0282
1695,16.95,-583.05,0.0049
1696,16.96,-583.04,-0.0072
1697,16.97,-583.03,-0.0019
1698,16.98,-583.02,-0.0405
1699,16.99,-583.01,-0.0149
1700,17,-583,0.0169
1701,17.01,-582.99,-0.0084
1702,17.02,-582.98,-0.0339
1703,17.03,-582.97,-0.0459
1704,17.04,-582.96,-0.0091
1705,17.05,-582.95,-0.02
1706,17.06,-582.94,0.0012
1707,17.07,-582.93,-0.0222
1708,17.08,-582.92,-0.0203
1709,17.09,-582.91,0.0107
1710,17.1,-582.9,-0.0088
1711,17.11,-582.89,-0.0046
1712,17.12,-582.88,-0.0087
1713,17.13,-582.87,-0.0293
1714,17.14,-582.86,-0.0183
1715,17.15,-582.85,-0.0051
1716,17.16,-582.84,-0.0112
1717,17.17,-582.83,-0.0064
1718,17.18,-582.82,-0.0139
1719,17.19,-582.81,0.0072
1720,17.2,-582.8,0.0051
1721,17.21,-582.79,-0.0032
1722,17.22,-582.78,-0.0015
1723,17.23,-582.77,-0.0007
1724,17.24,-582.76,0.0091
1725,17.25,-582.75,0.0106
1726,17.26,-582.74,0.0289
1727,17.27,-582.73,0.025
1728,17.28,-582.72,-0.0253
1729,17.29,-582.71,0.0083
1730,17.3,-582.7,0.0278
1731,17.31,-582.69,0.0087
1732,17.32,-582.68,0.0005
1733,17.33,-582.67,0.0308
1734,17.34,-582.66,0.0446
1735,17.35,-582.65,0.1091
1736,17.36,-582.64,0.1153
1737,17.37,-582.63,0.101
1738,17.38,-582.62,0.2482
1739,17.39,-582.61,0.2286
1740,17.4,-582.6,0.165
1741,17.41,-582.59,0.1161
1742,17.42,-582.58,0.0658
1743,17.43,-582.57,0.0091
1744,17.44,-582.56,-0.0414
1745,17.45,-582.55,0.0111
1746,17.46,-582.54,-0.0151
1747,17.47,-582.53,0.0098
1748,17.48,-582.52,0.0064
1749,17.49,-582.51,0.0105
1750,17.5,-582.5,0.1437
1751,17.51,-582.49,1.3807
1752,17.52,-582.48,3.4848
1753,17.53,-582.47,4.2596
1754,17.54,-582.46,1.1752
1755,17.55,-582.45,-0.6691
1756,17.56,-582.44,-0.0343
1757,17.57,-582.43,0.007
1758,17.58,-582.42,-0.0457
1759,17.59,-582.41,-0.086
1760,17.6,-582.4,-0.0575
1761,17.61,-582.39,-0.071
1762,17.62,-582.38,-0.051
1763,17.63,-582.37,-0.0616
1764,17.64,-582.36,-0.048
1765,17.65,-582.35,-0.0585
1766,17.66,-582.34,-0.0832
1767,17.67,-582.33,-0.0772
1768,17.68,-582.32,-0.0805
1769,17.69,-582.31,-0.0553
1770,17.7,-582.3,-0.0366
1771,17.71,-582.29,-0.0595
1772,17.72,-582.28,-0.0407
1773,17.73,-582.27,-0.0054
1774,17.74,-582.26,-0.035
1775,17.75,-582.25,-0.0604
1776,17.76,-582.24,-0.0325
1777,17.77,-582.23,-0.0203
1778,17.78,-582.22,0.008
1779,17.79,-582.21,0.0671
1780,17.8,-582.2,0.1061
1781,17.81,-582.19,0.2022
1782,17.82,-582.18,0.2439
1783,17.83,-582.17,0.2663
1784,17.84,-582.16,0.3747
1785,17.85,-582.15,0.4422
1786,17.86,-582.14,0.4823
1787,17.87,-582.13,0.5175
1788,17.88,-582.12,0.5493
1789,17.89,-582.11,0.4661
1790,17.9,-582.1,0.3751
1791,17.91,-582.09,0.3005
1792,17.92,-582.08,0.2083
1793,17.93,-582.07,0.1435
1794,17.94,-582.06,0.0522
1795,17.95,-582.05,0.043
1796,17.96,-582.04,0.0477
1797,17.97,-582.03,0.0101
1798,17.98,-582.02,0.0413
1799,17.99,-582.01,0.0265
1800,18,-582,0.0024
1801,18.01,-581.99,-0.0247
1802,18.02,-581.98,0.0018
1803,18.03,-581.97,-0.034
1804,18.04,-581.96,-0.0234
1805,18.05,-581.95,-0.0523
1806,18.06,-581.94,-0.0423
1807,18.07,-581.93,-0.0547
1808,18.08,-581.92,-0.0366
1809,18.09,-581.91,-0.0443
1810,18.1,-581.9,-0.0269
1811,18.11,-581.89,-0.0336
1812,18.12,-581.88,-0.0134
1813,18.13,-581.87,-0.0902
1814,18.14,-581.86,-0.0661
1815,18.15,-581.85,0.0285
1816,18.16,-581.84,-0.1218
1817,18.17,-581.83,0.0897
1818,18.18,-581.82,0.0401
1819,18.19,-581.81,0.0341
1820,18.2,-581.8,-0.0055
1821,18.21,-581.79,0.0119
1822,18.22,-581.78,-0.0177
1823,18.23,-581.77,0.0077
1824,18.24,-581.76,0.0301
1825,18.25,-581.75,-0.0085
1826,18.26,-581.74,0.0027
1827,18.27,-581.73,-0.0015
1828,18.28,-581.72,-0.004
1829,18.29,-581.71,-0.0111
1830,18.3,-581.7,0.0249
1831,18.31,-581.69,0.0169
1832,18.32,-581.68,-0.0121
1833,18.33,-581.67,-0.0302
1834,18.34,-581.66,-0.0311
1835,18.35,-581.65,-0.0166
1836,18.36,-581.64,-0.0219
1837,18.37,-581.63,-0.0133
1838,18.38,-581.62,0.0046
1839,18.39,-581.61,-0.0127
1840,18.4,-581.6,0.0134
1841,18.41,-581.59,0.0042
1842,18.42,-581.58,-0.0362
1843,18.43,-581.57,0.0072
1844,18.44,-581.56,0.0276
1845,18.45,-581.55,0.0027
1846,18.46,-581.54,0.0064
1847,18.47,-581.53,0.0188
1848,18.48,-581.52,0.014
1849,18.49,-581.51,0.0332
1850,18.5,-581.5,0.1306
1851,18.51,-581.49,0.1324
1852,18.52,-581.48,0.1685
1853,18.53,-581.47,0.1288
1854,18.54,-581.46,0.1064
1855,18.55,-581.45,0.0994
1856,18.56,-581.44,0.0487
1857,18.57,-581.43,-0.0261
1858,18.58,-581.42,-0.0398
1859,18.59,-581.41,-0.053
1860,18.6,-581.4,-0.0583
1861,18.61,-581.39,-0.0295
1862,18.62,-581.38,0.001
1863,18.63,-581.37,-0.0869
1864,18.64,-581.36,0.4049
1865,18.65,-581.35,2.0831
1866,18.66,-581.34,3.9158
1867,18.67,-581.33,3.2253
1868,18.68,-581.32,-0.0718
1869,18.69,-581.31,-0.4816
1870,18.7,-581.3,-0.0014
1871,18.71,-581.29,-0.0176
1872,18.72,-581.28,-0.063
1873,18.73,-581.27,-0.0087
1874,18.74,-581.26,-0.0683
1875,18.75,-581.25,-0.0583
1876,18.76,-581.24,-0.0237
1877,18.77,-581.23,-0.0941
1878,18.78,-581.22,-0.0891
1879,18.79,-581.21,-0.0249
1880,18.8,-581.2,-0.0637
1881,18.81,-581.19,-0.1052
1882,18.82,-581.18,-0.1356
1883,18.83,-581.17,-0.0471
1884,18.84,-581.16,-0.0245
1885,18.85,-581.15,-0.099
1886,18.86,-581.14,-0.0515
1887,18.87,-581.13,-0.0811
1888,18.88,-581.12,-0.078
1889,18.89,-581.11,-0.0351
1890,18.9,-581.1,-0.0116
1891,18.91,-581.09,0.0064
1892,18.92,-581.08,0.0071
1893,18.93,-581.07,0.0574
1894,18.94,-581.06,0.1516
1895,18.95,-581.05,0.1502
1896,18.96,-581.04,0.2716
1897,18.97,-581.03,0.3568
1898,18.98,-581.02,0.4742
1899,18.99,-581.01,0.4861
1900,19,-581,0.5346
1901,19.01,-580.99,0.5823
1902,19.02,-580.98,0.5084
1903,19.03,-580.97,0.4993
1904,19.04,-580.96,0.4134
1905,19.05,-580.95,0.2571
1906,19.06,-580.94,0.1785
1907,19.07,-580.93,0.1085
1908,19.08,-580.92,0.093
1909,19.09,-580.91,0.0709
1910,19.1,-580.9,0.0483
1911,19.11,-580.89,0.0164
1912,19.12,-580.88,0.0586
1913,19.13,-580.87,0.0576
1914,19.14,-580.86,-0.0105
1915,19.15,-580.85,0.0685
1916,19.16,-580.84,0.0216
1917,19.17,-580.83,-0.0309
1918,19.18,-580.82,-0.0088
1919,19.19,-580.81,-0.0178
1920,19.2,-580.8,-0.023
1921,19.21,-580.79,-0.0296
1922,19.22,-580.78,-0.0296
1923,19.23,-580.77,0.0106
1924,19.24,-580.76,-0.0508
1925,19.25,-580.75,-0.0149
1926,19.26,-580.74,-0.0092
1927,19.27,-580.73,-0.0221
1928,19.28,-580.72,0.0244
1929,19.29,-580.71,-0.0292
1930,19.3,-580.7,-0.0031
1931,19.31,-580.69,-0.0027
1932,19.32,-580.68,0.0265
1933,19.33,-580.67,0.0101
1934,19.34,-580.66,0.0207
1935,19.35,-580.65,-0.0205
1936,19.36,-580.64,-0.0309
1937,19.37,-580.63,-0.0072
1938,19.38,-580.62,-0.0155
1939,19.39,-580.61,-0.0255
1940,19.4,-580.6,-0.0157
1941,19.41,-580.59,-0.0455
1942,19.42,-580.58,-0.088
1943,19.43,-580.57,0.0188
1944,19.44,-580.56,0.0408
1945,19.45,-580.55,-0.0477
1946,19.46,-580.54,-0.0212
1947,19.47,-580.53,-0.0102
1948,19.48,-580.52,0.0056
1949,19.49,-580.51,-0.0363
1950,19.5,-580.5,-0.0643
1951,19.51,-580.49,-0.0464
1952,19.52,-580.48,0.0258
1953,19.53,-580.47,0.0136
1954,19.54,-580.46,0.1531
1955,19.55,-580.45,0.1504
1956,19.56,-580.44,0.1393
1957,19.57,-580.43,0.22
1958,19.58,-580.42,0.2592
1959,19.59,-580.41,0.1719
1960,19.6,-580.4,0.0952
1961,19.61,-580.39,0.0255
1962,19.62,-580.38,-0.033
1963,19.63,-580.37,-0.0544
1964,19.64,-580.36,-0.0101
1965,19.65,-580.35,-0.0371
1966,19.66,-580.34,0.0041
1967,19.67,-580.33,-0.0149
1968,19.68,-580.32,-0.018
1969,19.69,-580.31,0.4883
1970,19.7,-580.3,2.1422
1971,19.71,-580.29,3.9903
1972,19.72,-580.28,2.789
1973,19.73,-580.27,-0.3205
1974,19.74,-580.26,-0.4027
1975,19.75,-580.25,-0.0336
1976,19.76,-580.24,-0.0562
1977,19.77,-580.23,-0.1053
1978,19.78,-580.22,-0.0733
1979,19.79,-580.21,-0.0385
1980,19.8,-580.2,-0.0566
1981,19.81,-580.19,-0.0798
1982,19.82,-580.18,-0.0617
1983,19.83,-580.17,-0.0468
1984,19.84,-580.16,-0.0485
1985,19.85,-580.15,-0.0891
1986,19.86,-580.14,0.017
1987,19.87,-580.13,0.0213
1988,19.88,-580.12,-0.0806
1989,19.89,-580.11,-0.1461
1990,19.9,-580.1,0.0109
1991,19.91,-580.09,-0.1052
1992,19.92,-580.08,-0.0123
1993,19.93,-580.07,0.0003
1994,19.94,-580.06,-0.0075
1995,19.95,-580.05,0.0417
1996,19.96,-580.04,0.0768
1997,19.97,-580.03,-0.0432
1998,19.98,-580.02,0.203
1999,19.99,-580.01,0.2188
2000,20,-580,0.2603
2001,20.01,-579.99,0.3538
2002,20.02,-579.98,0.4819
2003,20.03,-579.97,0.4453
2004,20.04,-579.96,0.4892
2005,20.05,-579.95,0.5843
2006,20.06,-579.94,0.5626
2007,20.07,-579.93,0.5113
2008,20.08,-579.92,0.4938
2009,20.09,-579.91,0.4053
2010,20.1,-579.9,0.2108
2011,20.11,-579.89,0.156
2012,20.12,-579.88,0.1666
2013,20.13,-579.87,0.0631
2014,20.14,-579.86,0.0175
2015,20.15,-579.85,-0.0021
2016,20.16,-579.84,-0.0258
2017,20.17,-579.83,0.0257
2018,20.18,-579.82,0.0872
2019,20.19,-579.81,0.045
2020,20.2,-579.8,-0.1049
2021,20.21,-579.79,-0.0762
2022,20.22,-579.78,-0.0771
2023,20.23,-579.77,-0.0286
2024,20.24,-579.76,-0.0442
2025,20.25,-579.75,-0.0094
2026,20.26,-579.74,-0.0415
2027,20.27,-579.73,-0.0118
2028,20.28,-579.72,-0.0348
2029,20.29,-579.71,-0.1138
2030,20.3,-579.7,-0.0646
2031,20.31,-579.69,0.009
2032,20.32,-579.68,-0.0514
2033,20.33,-579.67,-0.0782
2034,20.34,-579.66,-0.2152
2035,20.35,-579.65,-0.0623
2036,20.36,-579.64,-0.0609
2037,20.37,-579.63,-0.0477
2038,20.38,-579.62,0.0138
2039,20.39,-579.61,-0.0674
2040,20.4,-579.6,-0.0027
2041,20.41,-579.59,-0.026
2042,20.42,-579.58,0.015
2043,20.43,-579.57,-0.1242
2044,20.44,-579.56,0.0353
2045,20.45,-579.55,0.034
2046,20.46,-579.54,0.0354
2047,20.47,-579.53,0.0066
2048,20.48,-579.52,-0.0262
2049,20.49,-579.51,0.02
2050,20.5,-579.5,0.0316
2051,20.51,-579.49,-0.0803
2052,20.52,-579.48,0.0778
2053,20.53,-579.47,0.1225
2054,20.54,-579.46,0.0893
2055,20.55,-579.45,0.1974
2056,20.56,-579.44,0.1842
2057,20.57,-579.43,0.1776
2058,20.58,-579.42,0.168
2059,20.59,-579.41,0.1215
2060,20.6,-579.4,0.0954
2061,20.61,-579.39,-0.0117
2062,20.62,-579.38,-0.0314
2063,20.63,-579.37,-0.012
2064,20.64,-579.36,0.0217
2065,20.65,-579.35,-0.0257
2066,20.66,-579.34,-0.0222
2067,20.67,-579.33,-0.0643
2068,20.68,-579.32,0.2525
2069,20.69,-579.31,1.5853
2070,20.7,-579.3,3.5706
2071,20.71,-579.29,3.7019
2072,20.72,-579.28,0.608
2073,20.73,-579.27,-0.5654
2074,20.74,-579.26,-0.0699
2075,20.75,-579.25,-0.0493
2076,20.76,-579.24,-0.136
2077,20.77,-579.23,-0.0558
2078,20.78,-579.22,-0.0493
2079,20.79,-579.21,-0.1115
2080,20.8,-579.2,-0.1698
2081,20.81,-579.19,-0.1489
2082,20.82,-579.18,0.0031
2083,20.83,-579.17,-0.131
2084,20.84,-579.16,-0.0248
2085,20.85,-579.15,-0.1475
2086,20.86,-579.14,-0.1156
2087,20.87,-579.13,0.022
2088,20.88,-579.12,-0.1225
2089,20.89,-579.11,-0.1131
2090,20.9,-579.1,-0.0885
2091,20.91,-579.09,-0.0454
2092,20.92,-579.08,-0.1018
2093,20.93,-579.07,-0.047
2094,20.94,-579.06,0.036
2095,20.95,-579.05,-0.0155
2096,20.96,-579.04,0.0313
2097,20.97,-579.03,0.0309
2098,20.98,-579.02,0.086
2099,20.99,-579.01,0.2221
2100,21,-579,0.2895
2101,21.01,-578.99,0.3472
2102,21.02,-578.98,0.3488
2103,21.03,-578.97,0.4109
2104,21.04,-578.96,0.4828
2105,21.05,-578.95,0.5175
2106,21.06,-578.94,0.5499
2107,21.07,-578.93,0.3959
2108,21.08,-578.92,0.2043
2109,21.09,-578.91,0.1651
2110,21.1,-578.9,0.243
2111,21.11,-578.89,0.0547
2112,21.12,-578.88,0.0648
2113,21.13,-578.87,0.043
2114,21.14,-578.86,-0.0417
2115,21.15,-578.85,0.0043
2116,21.16,-578.84,0.0102
2117,21.17,-578.83,-0.0105
2118,21.18,-578.82,-0.0007
2119,21.19,-578.81,0.0058
2120,21.2,-578.8,-0.0887
2121,21.21,-578.79,0.0006
2122,21.22,-578.78,-0.0076
2123,21.23,-578.77,-0.0312
2124,21.24,-578.76,-0.0344
2125,21.25,-578.75,-0.0844
2126,21.26,-578.74,-0.0623
2127,21.27,-578.73,0.0011
2128,21.28,-578.72,-0.002
2129,21.29,-578.71,-0.1738
2130,21.3,-578.7,0.0762
2131,21.31,-578.69,-0.0334
2132,21.32,-578.68,-0.0104
2133,21.33,-578.67,0.0307
2134,21.34,-578.66,0.0014
2135,21.35,-578.65,0.0021
2136,21.36,-578.64,-0.0183
2137,21.37,-578.63,-0.0187
2138,21.38,-578.62,0.0056
2139,21.39,-578.61,0.0787
2140,21.4,-578.6,-0.0377
2141,21.41,-578.59,-0.0189
2142,21.42,-578.58,-0.0011
2143,21.43,-578.57,-0.032
2144,21.44,-578.56,0.0262
2145,21.45,-578.55,-0.0177
2146,21.46,-578.54,-0.0432
2147,21.47,-578.53,-0.0113
2148,21.48,-578.52,0.0785
2149,21.49,-578.51,0.1146
2150,21.5,-578.5,0.1295
2151,21.51,-578.49,0.2095
2152,21.52,-578.48,0.1634
2153,21.53,-578.47,0.0666
2154,21.54,-578.46,0.0313
2155,21.55,-578.45,0.0213
2156,21.56,-578.44,0.0206
2157,21.57,-578.43,-0.0701
2158,21.58,-578.42,-0.0887
2159,21.59,-578.41,-0.0652
2160,21.6,-578.4,-0.0614
2161,21.61,-578.39,-0.038
2162,21.62,-578.38,-0.0867
2163,21.63,-578.37,0.2387
2164,21.64,-578.36,1.7725
2165,21.65,-578.35,3.7879
2166,21.66,-578.34,3.9063
2167,21.67,-578.33,0.4718
2168,21.68,-578.32,-0.6841
2169,21.69,-578.31,-0.0687
2170,21.7,-578.3,-0.1379
2171,21.71,-578.29,-0.0806
2172,21.72,-578.28,-0.0969
2173,21.73,-578.27,-0.2157
2174,21.74,-578.26,-0.1248
2175,21.75,-578.25,-0.1253
2176,21.76,-578.24,-0.0792
2177,21.77,-578.23,-0.1675
2178,21.78,-578.22,-0.0759
2179,21.79,-578.21,0.0009
2180,21.8,-578.2,-0.0376
2181,21.81,-578.19,-0.0357
2182,21.82,-578.18,-0.0552
2183,21.83,-578.17,-0.0519
2184,21.84,-578.16,-0.0314
2185,21.85,-578.15,-0.0615
2186,21.86,-578.14,-0.0417
2187,21.87,-578.13,-0.0123
2188,21.88,-578.12,0.0517
2189,21.89,-578.11,0.1291
2190,21.9,-578.1,-0.0811
2191,21.91,-578.09,0.0352
2192,21.92,-578.08,0.1576
2193,21.93,-578.07,0.0287
2194,21.94,-578.06,0.3034
2195,21.95,-578.05,0.3626
2196,21.96,-578.04,0.3539
2197,21.97,-578.03,0.4477
2198,21.98,-578.02,0.5347
2199,21.99,-578.01,0.6465
2200,22,-578,0.5715
2201,22.01,-577.99,0.5718
2202,22.02,-577.98,0.4934
2203,22.03,-577.97,0.3936
2204,22.04,-577.96,0.3102
2205,22.05,-577.95,0.2405
2206,22.06,-577.94,0.1646
2207,22.07,-577.93,0.1578
2208,22.08,-577.92,0.0916
2209,22.09,-577.91,0.0409
2210,22.1,-577.9,0.0467
2211,22.11,-577.89,0.0486
2212,22.12,-577.88,0.0256
2213,22.13,-577.87,0.06
2214,22.14,-577.86,-0.005
2215,22.15,-577.85,-0.0352
2216,22.16,-577.84,-0.0179
2217,22.17,-577.83,-0.0365
2218,22.18,-577.82,0.0135
2219,22.19,-577.81,-0.0345
2220,22.2,-577.8,-0.0478
2221,22.21,-577.79,-0.0308
2222,22.22,-577.78,-0.0489
2223,22.23,-577.77,-0.0328
2224,22.24,-577.76,-0.0492
2225,22.25,-577.75,-0.0617
2226,22.26,-577.74,-0.0169
2227,22.27,-577.73,-0.0144
2228,22.28,-577.72,-0.0148
2229,22.29,-577.71,-0.0185
2230,22.3,-577.7,-0.0796
2231,22.31,-577.69,-0.0431
2232,22.32,-577.68,-0.0502
2233,22.33,-577.67,-0.0482
2234,22.34,-577.66,-0.0162
2235,22.35,-577.65,-0.0156
2236,22.36,-577.64,-0.087
2237,22.37,-577.63,-0.0903
2238,22.38,-577.62,-0.0263
2239,22.39,-577.61,-0.022
2240,22.4,-577.6,-0.0348
2241,22.41,-577.59,0.0519
2242,22.42,-577.58,0.0515
2243,22.43,-577.57,0.1197
2244,22.44,-577.56,0.1588
2245,22.45,-577.55,0.1513
2246,22.46,-577.54,0.1704
2247,22.47,-577.53,0.1158
2248,22.48,-577.52,0.0543
2249,22.49,-577.51,-0.036
2250,22.5,-577.5,-0.0427
2251,22.51,-577.49,-0.0309
2252,22.52,-577.48,-0.0484
2253,22.53,-577.47,-0.0448
2254,22.54,-577.46,-0.0446
2255,22.55,-577.45,0.0075
2256,22.56,-577.44,-0.0714
2257,22.57,-577.43,0.9042
2258,22.58,-577.42,2.9266
2259,22.59,-577.41,4.4846
2260,22.6,-577.4,2.2203
2261,22.61,-577.39,-0.6908
2262,22.62,-577.38,-0.3411
2263,22.63,-577.37,-0.0564
2264,22.64,-577.36,-0.0456
2265,22.65,-577.35,-0.0704
2266,22.66,-577.34,-0.1559
2267,22.67,-577.33,-0.166
2268,22.68,-577.32,-0.067
2269,22.69,-577.31,-0.0951
2270,22.7,-577.3,-0.1413
2271,22.71,-577.29,-0.1556
2272,22.72,-577.28,-0.1027
2273,22.73,-577.27,-0.1687
2274,22.74,-577.26,-0.0368
2275,22.75,-577.25,-0.151
2276,22.76,-577.24,-0.1027
2277,22.77,-577.23,-0.0605
2278,22.78,-577.22,-0.0668
2279,22.79,-577.21,-0.0611
2280,22.8,-577.2,-0.057
2281,22.81,-577.19,-0.0775
2282,22.82,-577.18,-0.0394
2283,22.83,-577.17,0.0016
2284,22.84,-577.16,-0.0205
2285,22.85,-577.15,0.0159
2286,22.86,-577.14,0.071
2287,22.87,-577.13,0.1211
2288,22.88,-577.12,0.2192
2289,22.89,-577.11,0.2951
2290,22.9,-577.1,0.3268
2291,22.91,-577.09,0.378
2292,22.92,-577.08,0.427
2293,22.93,-577.07,0.4889
2294,22.94,-577.06,0.3682
2295,22.95,-577.05,0.3573
2296,22.96,-577.04,0.2976
2297,22.97,-577.03,0.2318
2298,22.98,-577.02,0.1381
2299,22.99,-577.01,0.0957
2300,23,-577,-0.0345
2301,23.01,-576.99,0.0588
2302,23.02,-576.98,-0.0137
2303,23.03,-576.97,-0.0009
2304,23.04,-576.96,0.0405
2305,23.05,-576.95,-0.0283
2306,23.06,-576.94,-0.0141
2307,23.07,-576.93,0.0122
2308,23.08,-576.92,-0.041
2309,23.09,-576.91,-0.0177
2310,23.1,-576.9,0.0021
2311,23.11,-576.89,-0.0815
2312,23.12,-576.88,-0.0732
2313,23.13,-576.87,-0.0268
2314,23.14,-576.86,-0.0429
2315,23.15,-576.85,0.0242
2316,23.16,-576.84,0.0288
2317,23.17,-576.83,-0.0934
2318,23.18,-576.82,-0.0221
2319,23.19,-576.81,0.011
2320,23.2,-576.8,-0.0209
2321,23.21,-576.79,-0.0096
2322,23.22,-576.78,-0.0307
2323,23.23,-576.77,0.0485
2324,23.24,-576.76,0.0334
2325,23.25,-576.75,-0.0415
2326,23.26,-576.74,-0.0163
2327,23.27,-576.73,-0.0483
2328,23.28,-576.72,0.0246
2329,23.29,-576.71,-0.0085
2330,23.3,-576.7,-0.001
2331,23.31,-576.69,-0.0235
2332,23.32,-576.68,-0.034
2333,23.33,-576.67,-0.0165
2334,23.34,-576.66,0.0078
2335,23.35,-576.65,0.0177
2336,23.36,-576.64,0.0215
2337,23.37,-576.63,0.0093
2338,23.38,-576.62,0.0718
2339,23.39,-576.61,0.2096
2340,23.4,-576.6,0.1794
2341,23.41,-576.59,0.2444
2342,23.42,-576.58,0.1329
2343,23.43,-576.57,0.2633
2344,23.44,-576.56,0.1496
2345,23.45,-576.55,0.0348
2346,23.46,-576.54,0.026
2347,23.47,-576.53,-0.0051
2348,23.48,-576.52,0.0016
2349,23.49,-576.51,-0.0115
2350,23.5,-576.5,0.0432
2351,23.51,-576.49,0.0712
2352,23.52,-576.48,0.013
2353,23.53,-576.47,0.5041
2354,23.54,-576.46,2.623
2355,23.55,-576.45,4.756
2356,23.56,-576.44,3.742
2357,23.57,-576.43,-0.0509
2358,23.58,-576.42,-0.6201
2359,23.59,-576.41,-0.07
2360,23.6,-576.4,-0.1438
2361,23.61,-576.39,-0.2144
2362,23.62,-576.38,0.0473
2363,23.63,-576.37,0.0031
2364,23.64,-576.36,-0.0936
2365,23.65,-576.35,-0.1258
2366,23.66,-576.34,-0.0719
2367,23.67,-576.33,-0.1454
2368,23.68,-576.32,-0.3138
2369,23.69,-576.31,-0.0256
2370,23.7,-576.3,-0.0451
2371,23.71,-576.29,-0.1043
2372,23.72,-576.28,-0.0713
2373,23.73,-576.27,-0.1036
2374,23.74,-576.26,-0.084
2375,23.75,-576.25,-0.1175
2376,23.76,-576.24,-0.1314
2377,23.77,-576.23,-0.1978
2378,23.78,-576.22,-0.1345
2379,23.79,-576.21,-0.2214
2380,23.8,-576.2,0.0085
2381,23.81,-576.19,-0.0054
2382,23.82,-576.18,0.0584
2383,23.83,-576.17,0.09
2384,23.84,-576.16,0.124
2385,23.85,-576.15,0.1187
2386,23.86,-576.14,0.2291
2387,23.87,-576.13,0.2327
2388,23.88,-576.12,0.4852
2389,23.89,-576.11,0.6065
2390,23.9,-576.1,0.4282
2391,23.91,-576.09,0.4836
2392,23.92,-576.08,0.3924
2393,23.93,-576.07,0.3031
2394,23.94,-576.06,0.2216
2395,23.95,-576.05,0.1248
2396,23.96,-576.04,0.0907
2397,23.97,-576.03,0.0058
2398,23.98,-576.02,0.0384
2399,23.99,-576.01,0.1032
2400,24,-576,0.0188
2401,24.01,-575.99,-0.0531
2402,24.02,-575.98,-0.0582
2403,24.03,-575.97,-0.069
2404,24.04,-575.96,-0.0763
2405,24.05,-575.95,-0.0578
2406,24.06,-575.94,-0.0802
2407,24.07,-575.93,-0.0595
2408,24.08,-575.92,-0.037
2409,24.09,-575.91,-0.0492
2410,24.1,-575.9,-0.0048
2411,24.11,-575.89,-0.0955
2412,24.12,-575.88,-0.0626
2413,24.13,-575.87,0.0499
2414,24.14,-575.86,-0.0069
2415,24.15,-575.85,0.0402
2416,24.16,-575.84,-0.0296
2417,24.17,-575.83,-0.0162
2418,24.18,-575.82,-0.0215
2419,24.19,-575.81,0.023
2420,24.2,-575.8,-0.0959
2421,24.21,-575.79,-0.063
2422,24.22,-575.78,0.0073
2423,24.23,-575.77,-0.0084
2424,24.24,-575.76,-0.016
2425,24.25,-575.75,-0.0312
2426,24.26,-575.74,-0.0438
2427,24.27,-575.73,-0.0429
2428,24.28,-575.72,-0.0443
2429,24.29,-575.71,-0.0214
2430,24.3,-575.7,-0.0197
2431,24.31,-575.69,0.0833
2432,24.32,-575.68,0.1166
2433,24.33,-575.67,0.1959
2434,24.34,-575.66,0.1872
2435,24.35,-575.65,0.0876
2436,24.36,-575.64,0.1888
2437,24.37,-575.63,0.0606
2438,24.38,-575.62,0.0625
2439,24.39,-575.61,-0.0328
2440,24.4,-575.6,-0.0112
2441,24.41,-575.59,-0.0184
2442,24.42,-575.58,-0.0188
2443,24.43,-575.57,0.0383
2444,24.44,-575.56,-0.08
2445,24.45,-575.55,-0.1915
2446,24.46,-575.54,0.1825
2447,24.47,-575.53,1.6877
2448,24.48,-575.52,3.8697
2449,24.49,-575.51,4.6116
2450,24.5,-575.5,0.822
2451,24.51,-575.49,-0.9497
2452,24.52,-575.48,-0.1876
2453,24.53,-575.47,0.0239
2454,24.54,-575.46,-0.0212
2455,24.55,-575.45,0.0029
2456,24.56,-575.44,-0.0451
2457,24.57,-575.43,-0.036
2458,24.58,-575.42,-0.0476
2459,24.59,-575.41,-0.0554
2460,24.6,-575.4,0.0169
2461,24.61,-575.39,0.0021
2462,24.62,-575.38,0.0264
2463,24.63,-575.37,-0.068
2464,24.64,-575.36,-0.0656
2465,24.65,-575.35,-0.0351
2466,24.66,-575.34,-0.0027
2467,24.67,-575.33,-0.0139
2468,24.68,-575.32,0.0426
2469,24.69,-575.31,-0.0102
2470,24.7,-575.3,0.0189
2471,24.71,-575.29,0.0525
2472,24.72,-575.28,-0.0078
2473,24.73,-575.27,0.0248
2474,24.74,-575.26,0.0978
2475,24.75,-575.25,0.1239
2476,24.76,-575.24,0.2918
2477,24.77,-575.23,0.2302
2478,24.78,-575.22,0.3056
2479,24.79,-575.21,0.4336
2480,24.8,-575.2,0.3604
2481,24.81,-575.19,0.4129
2482,24.82,-575.18,0.4859
2483,24.83,-575.17,0.5646
2484,24.84,-575.16,0.5085
2485,24.85,-575.15,0.5886
2486,24.86,-575.14,0.3308
2487,24.87,-575.13,0.1071
2488,24.88,-575.12,0.1761
2489,24.89,-575.11,0.1372
2490,24.9,-575.1,0.0395
2491,24.91,-575.09,0.0109
2492,24.92,-575.08,0.0468
2493,24.93,-575.07,-0.0644
2494,24.94,-575.06,0.0107
2495,24.95,-575.05,-0.0471
2496,24.96,-575.04,0.0428
2497,24.97,-575.03,-0.06
2498,24.98,-575.02,-0.2077
2499,24.99,-575.01,-0.1638
2500,25,-575,0.0214
2501,25.01,-574.99,-0.0956
2502,25.02,-574.98,-0.1847
2503,25.03,-574.97,-0.1215
2504,25.04,-574.96,-0.0152
2505,25.05,-574.95,-0.1321
2506,25.06,-574.94,-0.1399
2507,25.07,-574.93,-0.0861
2508,25.08,-574.92,-0.0668
2509,25.09,-574.91,-0.1136
2510,25.1,-574.9,-0.095
2511,25.11,-574.89,-0.0869
2512,25.12,-574.88,-0.1525
2513,25.13,-574.87,-0.0578
2514,25.14,-574.86,-0.0011
2515,25.15,-574.85,-0.1584
2516,25.16,-574.84,-0.0605
2517,25.17,-574.83,-0.0446
2518,25.18,-574.82,-0.1307
2519,25.19,-574.81,-0.0993
2520,25.2,-574.8,-0.011
2521,25.21,-574.79,-0.1053
2522,25.22,-574.78,-0.084
2523,25.23,-574.77,-0.0581
2524,25.24,-574.76,-0.1251
2525,25.25,-574.75,-0.0269
2526,25.26,-574.74,-0.0431
2527,25.27,-574.73,-0.0301
2528,25.28,-574.72,-0.0584
2529,25.29,-574.71,-0.0546
2530,25.3,-574.7,0.2162
2531,25.31,-574.69,0.1134
2532,25.32,-574.68,0.1102
2533,25.33,-574.67,0.1354
2534,25.34,-574.66,0.2099
2535,25.35,-574.65,0.087
2536,25.36,-574.64,-0.0272
2537,25.37,-574.63,0.0433
2538,25.38,-574.62,-0.0877
2539,25.39,-574.61,-0.0482
2540,25.4,-574.6,-0.0795
2541,25.41,-574.59,-0.012
2542,25.42,-574.58,-0.0257
2543,25.43,-574.57,0.0436
2544,25.44,-574.56,0.1481
2545,25.45,-574.55,1.4373
2546,25.46,-574.54,3.5063
2547,25.47,-574.53,4.4714
2548,25.48,-574.52,1.5223
2549,25.49,-574.51,-0.7269
2550,25.5,-574.5,-0.1646
2551,25.51,-574.49,0.0844
2552,25.52,-574.48,-0.0928
2553,25.53,-574.47,-0.1512
2554,25.54,-574.46,-0.0393
2555,25.55,-574.45,-0.191
2556,25.56,-574.44,-0.1222
2557,25.57,-574.43,-0.0758
2558,25.58,-574.42,0.024
2559,25.59,-574.41,-0.2032
2560,25.6,-574.4,-0.0517
2561,25.61,-574.39,-0.0819
2562,25.62,-574.38,-0.037
2563,25.63,-574.37,0.0009
2564,25.64,-574.36,-0.1371
2565,25.65,-574.35,-0.0151
2566,25.66,-574.34,-0.0877
2567,25.67,-574.33,-0.1133
2568,25.68,-574.32,-0.0629
2569,25.69,-574.31,-0.0091
2570,25.7,-574.3,-0.0614
2571,25.71,-574.29,-0.0257
2572,25.72,-574.28,0.0749
2573,25.73,-574.27,-0.0744
2574,25.74,-574.26,0.1632
2575,25.75,-574.25,0.18
2576,25.76,-574.24,0.1612
2577,25.77,-574.23,0.321
2578,25.78,-574.22,0.3879
2579,25.79,-574.21,0.4584
2580,25.8,-574.2,0.3374
2581,25.81,-574.19,0.4806
2582,25.82,-574.18,0.4422
2583,25.83,-574.17,0.4813
2584,25.84,-574.16,0.429
2585,25.85,-574.15,0.1469
2586,25.86,-574.14,0.1422
2587,25.87,-574.13,0.2316
2588,25.88,-574.12,0.136
2589,25.89,-574.11,-0.122
2590,25.9,-574.1,0.1588
2591,25.91,-574.09,-0.0021
2592,25.92,-574.08,-0.0077
2593,25.93,-574.07,0.0786
2594,25.94,-574.06,-0.1274
2595,25.95,-574.05,-0.0199
2596,25.96,-574.04,-0.0233
2597,25.97,-574.03,0.0425
2598,25.98,-574.02,-0.0407
2599,25.99,-574.01,-0.1104
2600,26,-574,-0.0823
2601,26.01,-573.99,-0.1951
2602,26.02,-573.98,0.03
2603,26.03,-573.97,-0.0729
2604,26.04,-573.96,-0.0131
2605,26.05,-573.95,-0.0166
2606,26.06,-573.94,0.1061
2607,26.07,-573.93,-0.3415
2608,26.08,-573.92,-0.0033
2609,26.09,-573.91,0.089
2610,26.1,-573.9,-0.0723
2611,26.11,-573.89,0.0416
2612,26.12,-573.88,-0.0714
2613,26.13,-573.87,0.0353
2614,26.14,-573.86,0.0768
2615,26.15,-573.85,-0.0838
2616,26.16,-573.84,-0.0453
2617,26.17,-573.83,0.0162
2618,26.18,-573.82,-0.0401
2619,26.19,-573.81,-0.0238
2620,26.2,-573.8,-0.0045
2621,26.21,-573.79,-0.0041
2622,26.22,-573.78,0.0371
2623,26.23,-573.77,-0.0997
2624,26.24,-573.76,0.1028
2625,26.25,-573.75,0.0773
2626,26.26,-573.74,-0.0495
2627,26.27,-573.73,0.0442
2628,26.28,-573.72,-0.0034
2629,26.29,-573.71,0.0109
2630,26.3,-573.7,0.0648
2631,26.31,-573.69,0.0874
2632,26.32,-573.68,0.1369
2633,26.33,-573.67,0.2011
2634,26.34,-573.66,0.1928
2635,26.35,-573.65,0.2167
2636,26.36,-573.64,0.1099
2637,26.37,-573.63,0.0056
2638,26.38,-573.62,0.0788
2639,26.39,-573.61,0.0277
2640,26.4,-573.6,-0.0812
2641,26.41,-573.59,-0.0982
2642,26.42,-573.58,0.1293
2643,26.43,-573.57,0.0342
2644,26.44,-573.56,-0.1946
2645,26.45,-573.55,-0.0368
2646,26.46,-573.54,0.7224
2647,26.47,-573.53,2.3511
2648,26.48,-573.52,4.3058
2649,26.49,-573.51,3.1013
2650,26.5,-573.5,-0.4213
2651,26.51,-573.49,-0.4998
2652,26.52,-573.48,-0.0477
2653,26.53,-573.47,-0.0999
2654,26.54,-573.46,-0.0898
2655,26.55,-573.45,-0.1101
2656,26.56,-573.44,-0.0297
2657,26.57,-573.43,-0.1475
2658,26.58,-573.42,-0.1909
2659,26.59,-573.41,-0.1158
2660,26.6,-573.4,-0.1231
2661,26.61,-573.39,-0.1364
2662,26.62,-573.38,-0.1091
2663,26.63,-573.37,-0.1007
2664,26.64,-573.36,-0.144
2665,26.65,-573.35,0.03
2666,26.66,-573.34,-0.0128
2667,26.67,-573.33,-0.278
2668,26.68,-573.32,-0.1204
2669,26.69,-573.31,-0.0829
2670,26.7,-573.3,-0.0559
2671,26.71,-573.29,-0.0259
2672,26.72,-573.28,-0.0516
2673,26.73,-573.27,-0.0037
2674,26.74,-573.26,0.0712
2675,26.75,-573.25,0.0377
2676,26.76,-573.24,0.1297
2677,26.77,-573.23,0.2766
2678,26.78,-573.22,0.2525
2679,26.79,-573.21,0.3222
2680,26.8,-573.2,0.5582
2681,26.81,-573.19,0.4192
2682,26.82,-573.18,0.4304
2683,26.83,-573.17,0.5025
2684,26.84,-573.16,0.4176
2685,26.85,-573.15,0.3856
2686,26.86,-573.14,0.2881
2687,26.87,-573.13,0.1942
2688,26.88,-573.12,0.1433
2689,26.89,-573.11,0.0902
2690,26.9,-573.1,0.0597
2691,26.91,-573.09,0.0531
2692,26.92,-573.08,0.0355
2693,26.93,-573.07,0.0839
2694,26.94,-573.06,0.0635
2695,26.95,-573.05,-0.0677
2696,26.96,-573.04,-0.045
2697,26.97,-573.03,-0.0334
2698,26.98,-573.02,-0.0542
2699,26.99,-573.01,-0.0203
2700,27,-573,0.0066
2701,27.01,-572.99,-0.1088
2702,27.02,-572.98,-0.115
2703,27.03,-572.97,-0.0581
2704,27.04,-572.96,-0.0625
2705,27.05,-572.95,-0.0296
2706,27.06,-572.94,0.0147
2707,27.07,-572.93,-0.0029
2708,27.08,-572.92,-0.0476
2709,27.09,-572.91,-0.0474
2710,27.1,-572.9,-0.0444
2711,27.11,-572.89,-0.0028
2712,27.12,-572.88,-0.0203
2713,27.13,-572.87,0.0052
2714,27.14,-572.86,-0.0214
2715,27.15,-572.85,-0.0638
2716,27.16,-572.84,-0.0162
2717,27.17,-572.83,-0.0237
2718,27.18,-572.82,0.0515
2719,27.19,-572.81,0.0279
2720,27.2,-572.8,0.0371
2721,27.21,-572.79,-0.0429
2722,27.22,-572.78,-0.0541
2723,27.23,-572.77,-0.0195
2724,27.24,-572.76,0.0038
2725,27.25,-572.75,0.0231
2726,27.26,-572.74,-0.0056
2727,27.27,-572.73,-0.0167
2728,27.28,-572.72,0.0785
2729,27.29,-572.71,0.0605
2730,27.3,-572.7,-0.0207
2731,27.31,-572.69,0.0084
2732,27.32,-572.68,0.045
2733,27.33,-572.67,0.0664
2734,27.34,-572.66,0.1804
2735,27.35,-572.65,0.2163
2736,27.36,-572.64,0.1649
2737,27.37,-572.63,0.1435
2738,27.38,-572.62,0.0233
2739,27.39,-572.61,0.0533
2740,27.4,-572.6,0.015
2741,27.41,-572.59,-0.1067
2742,27.42,-572.58,-0.0561
2743,27.43,-572.57,-0.0395
2744,27.44,-572.56,0.0391
2745,27.45,-572.55,-0.0144
2746,27.46,-572.54,-0.07
2747,27.47,-572.53,0.6236
2748,27.48,-572.52,2.4606
2749,27.49,-572.51,4.6226
2750,27.5,-572.5,3.1955
2751,27.51,-572.49,-0.5863
2752,27.52,-572.48,-0.544
2753,27.53,-572.47,0.059
2754,27.54,-572.46,-0.0438
2755,27.55,-572.45,-0.1706
2756,27.56,-572.44,-0.1674
2757,27.57,-572.43,-0.1281
2758,27.58,-572.42,-0.1231
2759,27.59,-572.41,-0.1254
2760,27.6,-572.4,-0.1186
2761,27.61,-572.39,-0.0754
2762,27.62,-572.38,-0.1151
2763,27.63,-572.37,-0.0954
2764,27.64,-572.36,-0.0289
2765,27.65,-572.35,-0.1674
2766,27.66,-572.34,-0.1129
2767,27.67,-572.33,-0.0738
2768,27.68,-572.32,-0.092
2769,27.69,-572.31,-0.0718
2770,27.7,-572.3,-0.059
2771,27.71,-572.29,-0.0937
2772,27.72,-572.28,-0.0861
2773,27.73,-572.27,-0.0151
2774,27.74,-572.26,0.0301
2775,27.75,-572.25,0.0022
2776,27.76,-572.24,0.0442
2777,27.77,-572.23,0.1024
2778,27.78,-572.22,0.1583
2779,27.79,-572.21,0.2243
2780,27.8,-572.2,0.271
2781,27.81,-572.19,0.3892
2782,27.82,-572.18,0.4054
2783,27.83,-572.17,0.4273
2784,27.84,-572.16,0.4698
2785,27.85,-572.15,0.4381
2786,27.86,-572.14,0.3375
2787,27.87,-572.13,0.3069
2788,27.88,-572.12,0.1869
2789,27.89,-572.11,0.0816
2790,27.9,-572.1,0.0563
2791,27.91,-572.09,0.0372
2792,27.92,-572.08,0.0598
2793,27.93,-572.07,0.0134
2794,27.94,-572.06,-0.0081
2795,27.95,-572.05,-0.0268
2796,27.96,-572.04,-0.013
2797,27.97,-572.03,-0.0114
2798,27.98,-572.02,0.0266
2799,27.99,-572.01,-0.0064
2800,28,-572,-0.0058
2801,28.01,-571.99,-0.0513
2802,28.02,-571.98,-0.123
2803,28.03,-571.97,-0.0332
2804,28.04,-571.96,-0.0394
2805,28.05,-571.95,-0.0083
2806,28.06,-571.94,0.0052
2807,28.07,-571.93,-0.012
2808,28.08,-571.92,-0.0186
2809,28.09,-571.91,-0.0196
2810,28.1,-571.9,-0.0102
2811,28.11,-571.89,0.0283
2812,28.12,-571.88,0.1425
2813,28.13,-571.87,-0.0993
2814,28.14,-571.86,-0.0864
2815,28.15,-571.85,-0.0008
2816,28.16,-571.84,-0.0319
2817,28.17,-571.83,-0.028
2818,28.18,-571.82,-0.0219
2819,28.19,-571.81,-0.0038
2820,28.2,-571.8,-0.0147
2821,28.21,-571.79,-0.0223
2822,28.22,-571.78,-0.0079
2823,28.23,-571.77,0.0032
2824,28.24,-571.76,0.0008
2825,28.25,-571.75,0.002
2826,28.26,-571.74,0.0014
2827,28.27,-571.73,0.002
2828,28.28,-571.72,0.0016
2829,28.29,-571.71,0.0025
2830,28.3,-571.7,0.001
2831,28.31,-571.69,0.0148
2832,28.32,-571.68,0.0457
2833,28.33,-571.67,0.0834
2834,28.34,-571.66,0.0878
2835,28.35,-571.65,0.1218
2836,28.36,-571.64,0.1687
2837,28.37,-571.63,0.2045
2838,28.38,-571.62,0.1854
2839,28.39,-571.61,0.1305
2840,28.4,-571.6,0.0759
2841,28.41,-571.59,-0.0034
2842,28.42,-571.58,0.0356
2843,28.43,-571.57,0.035
2844,28.44,-571.56,-0.0218
2845,28.45,-571.55,-0.0267
2846,28.46,-571.54,-0.0354
2847,28.47,-571.53,0.0204
2848,28.48,-571.52,0.1614
2849,28.49,-571.51,1.4781
2850,28.5,-571.5,3.5735
2851,28.51,-571.49,4.4948
2852,28.52,-571.48,1.3747
2853,28.53,-571.47,-0.7734
2854,28.54,-571.46,-0.1514
2855,28.55,-571.45,-0.0306
2856,28.56,-571.44,-0.0464
2857,28.57,-571.43,-0.0718
2858,28.58,-571.42,-0.0597
2859,28.59,-571.41,-0.0567
2860,28.6,-571.4,-0.0575
2861,28.61,-571.39,-0.0763
2862,28.62,-571.38,-0.0499
2863,28.63,-571.37,-0.0564
2864,28.64,-571.36,-0.0486
2865,28.65,-571.35,-0.1379
2866,28.66,-571.34,-0.0284
2867,28.67,-571.33,0.0653
2868,28.68,-571.32,-0.0809
2869,28.69,-571.31,0.0041
2870,28.7,-571.3,-0.0806
2871,28.71,-571.29,-0.0929
2872,28.72,-571.28,-0.0259
2873,28.73,-571.27,-0.2062
2874,28.74,-571.26,-0.13
2875,28.75,-571.25,0.2797
2876,28.76,-571.24,0.0079
2877,28.77,-571.23,0.0118
2878,28.78,-571.22,0.149
2879,28.79,-571.21,0.1904
2880,28.8,-571.2,0.1094
2881,28.81,-571.19,0.1313
2882,28.82,-571.18,0.4628
2883,28.83,-571.17,0.5705
2884,28.84,-571.16,0.4312
2885,28.85,-571.15,0.5156
2886,28.86,-571.14,0.4318
2887,28.87,-571.13,0.397
2888,28.88,-571.12,0.3981
2889,28.89,-571.11,0.2391
2890,28.9,-571.1,0.0463
2891,28.91,-571.09,0.2025
2892,28.92,-571.08,0.144
2893,28.93,-571.07,0.0118
2894,28.94,-571.06,0.1067
2895,28.95,-571.05,-0.0045
2896,28.96,-571.04,0.0317
2897,28.97,-571.03,-0.1172
2898,28.98,-571.02,0.1316
2899,28.99,-571.01,0.0388
2900,29,-571,-0.1415
2901,29.01,-570.99,-0.0355
2902,29.02,-570.98,-0.1436
2903,29.03,-570.97,-0.1483
2904,29.04,-570.96,-0.0002
2905,29.05,-570.95,-0.0566
2906,29.06,-570.94,-0.0398
2907,29.07,-570.93,-0.1209
2908,29.08,-570.92,0.0757
2909,29.09,-570.91,-0.2341
2910,29.1,-570.9,-0.152
2911,29.11,-570.89,0.1587
2912,29.12,-570.88,-0.0798
2913,29.13,-570.87,0.0019
2914,29.14,-570.86,0.002
2915,29.15,-570.85,-0.1064
2916,29.16,-570.84,-0.0195
2917,29.17,-570.83,0.0435
2918,29.18,-570.82,0.029
2919,29.19,-570.81,0.0215
2920,29.2,-570.8,0.0163
2921,29.21,-570.79,-0.0117
2922,29.22,-570.78,0.0283
2923,29.23,-570.77,0.0414
2924,29.24,-570.76,0.0466
2925,29.25,-570.75,-0.0454
2926,29.26,-570.74,0.0514
2927,29.27,-570.73,0.1203
2928,29.28,-570.72,-0.0174
2929,29.29,-570.71,-0.0559
2930,29.3,-570.7,-0.0261
2931,29.31,-570.69,0.0885
2932,29.32,-570.68,0.0493
2933,29.33,-570.67,-0.0183
2934,29.34,-570.66,0.0342
2935,29.35,-570.65,0.1707
2936,29.36,-570.64,-0.0848
2937,29.37,-570.63,0.104
2938,29.38,-570.62,-0.0456
2939,29.39,-570.61,-0.0896
2940,29.4,-570.6,-0.0083
2941,29.41,-570.59,-0.0454
2942,29.42,-570.58,0.0853
2943,29.43,-570.57,-0.1751
2944,29.44,-570.56,0.035
2945,29.45,-570.55,-0.0254
2946,29.46,-570.54,-0.131
2947,29.47,-570.53,-0.0657
2948,29.48,-570.52,-0.0113
2949,29.49,-570.51,-0.0094
2950,29.5,-570.5,-0.1386
2951,29.51,-570.49,-0.1567
2952,29.52,-570.48,-0.0408
2953,29.53,-570.47,0.0427
2954,29.54,-570.46,0.0426
2955,29.55,-570.45,0.0386
2956,29.56,-570.44,0.0692
2957,29.57,-570.43,0.052
2958,29.58,-570.42,0.1133
2959,29.59,-570.41,-0.0391
2960,29.6,-570.4,-0.184
2961,29.61,-570.39,-0.0767
2962,29.62,-570.38,-0.0883
2963,29.63,-570.37,-0.0564
2964,29.64,-570.36,-0.0249
2965,29.65,-570.35,-0.0231
2966,29.66,-570.34,0.0649
2967,29.67,-570.33,0.6802
2968,29.68,-570.32,2.432
2969,29.69,-570.31,4.5265
2970,29.7,-570.3,3.3039
2971,29.71,-570.29,-0.1592
2972,29.72,-570.28,-0.3664
2973,29.73,-570.27,0.0901
2974,29.74,-570.26,-0.0757
2975,29.75,-570.25,-0.1096
2976,29.76,-570.24,-0.1667
2977,29.77,-570.23,0.0318
2978,29.78,-570.22,0.0258
2979,29.79,-570.21,-0.0737
2980,29.8,-570.2,-0.1038
2981,29.81,-570.19,-0.0903
2982,29.82,-570.18,-0.0234
2983,29.83,-570.17,-0.0206
2984,29.84,-570.16,-0.1638
2985,29.85,-570.15,-0.0537
2986,29.86,-570.14,-0.1234
2987,29.87,-570.13,-0.0362
2988,29.88,-570.12,-0.0591
2989,29.89,-570.11,-0.0775
2990,29.9,-570.1,-0.0892
2991,29.91,-570.09,-0.1054
2992,29.92,-570.08,-0.0318
2993,29.93,-570.07,-0.0071
2994,29.94,-570.06,0.0263
2995,29.95,-570.05,-0.0471
2996,29.96,-570.04,0.0125
2997,29.97,-570.03,0.1267
2998,29.98,-570.02,0.1825
2999,29.99,-570.01,0.2205
3000,30,-570,0.3411
3001,30.01,-569.99,0.35
3002,30.02,-569.98,0.3736
3003,30.03,-569.97,0.516
3004,30.04,-569.96,0.452
3005,30.05,-569.95,0.4562
3006,30.06,-569.94,0.4673
3007,30.07,-569.93,0.3255
3008,30.08,-569.92,0.2345
3009,30.09,-569.91,0.2064
3010,30.1,-569.9,0.0802
3011,30.11,-569.89,0.1206
3012,30.12,-569.88,0.0714
3013,30.13,-569.87,0.0264
3014,30.14,-569.86,0.118
3015,30.15,-569.85,0.0381
3016,30.16,-569.84,-0.0203
3017,30.17,-569.83,0.0655
3018,30.18,-569.82,-0.0961
3019,30.19,-569.81,0.0759
3020,30.2,-569.8,-0.0209
3021,30.21,-569.79,0.0308
3022,30.22,-569.78,-0.063
3023,30.23,-569.77,-0.082
3024,30.24,-569.76,-0.0018
3025,30.25,-569.75,-0.0885
3026,30.26,-569.74,0.017
3027,30.27,-569.73,-0.022
3028,30.28,-569.72,0.0756
3029,30.29,-569.71,0.0504
3030,30.3,-569.7,-0.1087
3031,30.31,-569.69,-0.0342
3032,30.32,-569.68,-0.0092
3033,30.33,-569.67,0.0222
3034,30.34,-569.66,-0.0042
3035,30.35,-569.65,0.0068
3036,30.36,-569.64,0.0228
3037,30.37,-569.63,0.039
3038,30.38,-569.62,-0.0868
3039,30.39,-569.61,-0.1067
3040,30.4,-569.6,-0.0897
3041,30.41,-569.59,-0.037
3042,30.42,-569.58,0.0691
3043,30.43,-569.57,0.0249
3044,30.44,-569.56,-0.0459
3045,30.45,-569.55,-0.0721
3046,30.46,-569.54,-0.0492
3047,30.47,-569.53,-0.0273
3048,30.48,-569.52,-0.0002
3049,30.49,-569.51,0.0253
3050,30.5,-569.5,0.0027
3051,30.51,-569.49,-0.0468
3052,30.52,-569.48,0.0015
3053,30.53,-569.47,-0.0019
3054,30.54,-569.46,-0.104
3055,30.55,-569.45,-0.022
3056,30.56,-569.44,0.06
3057,30.57,-569.43,0.0056
3058,30.58,-569.42,-0.0125
3059,30.59,-569.41,0.0175
3060,30.6,-569.4,-0.025
3061,30.61,-569.39,-0.0307
3062,30.62,-569.38,-0.0197
3063,30.63,-569.37,0.0647
3064,30.64,-569.36,0.0531
3065,30.65,-569.35,-0.0461
3066,30.66,-569.34,-0.0417
3067,30.67,-569.33,0.0292
3068,30.68,-569.32,-0.0248
3069,30.69,-569.31,0.0155
3070,30.7,-569.3,-0.0457
3071,30.71,-569.29,-0.0658
3072,30.72,-569.28,0.0007
3073,30.73,-569.27,-0.0151
3074,30.74,-569.26,0.1065
3075,30.75,-569.25,-0.0267
3076,30.76,-569.24,0.1602
3077,30.77,-569.23,0.0989
3078,30.78,-569.22,0.145
3079,30.79,-569.21,0.0918
3080,30.8,-569.2,-0.0387
3081,30.81,-569.19,-0.0133
3082,30.82,-569.18,-0.08
3083,30.83,-569.17,-0.002
3084,30.84,-569.16,0.0705
3085,30.85,-569.15,0.0156
3086,30.86,-569.14,0.0226
3087,30.87,-569.13,-0.0452
3088,30.88,-569.12,0.0265
3089,30.89,-569.11,0.9478
3090,30.9,-569.1,2.8616
3091,30.91,-569.09,4.3357
3092,30.92,-569.08,2.0684
3093,30.93,-569.07,-0.5624
3094,30.94,-569.06,-0.1296
3095,30.95,-569.05,0.0447
3096,30.96,-569.04,0.0418
3097,30.97,-569.03,-0.0322
3098,30.98,-569.02,-0.1014
3099,30.99,-569.01,-0.071
3100,31,-569,-0.0279
3101,31.01,-568.99,-0.1191
3102,31.02,-568.98,-0.0243
3103,31.03,-568.97,-0.0067
3104,31.04,-568.96,-0.0693
3105,31.05,-568.95,-0.0593
3106,31.06,-568.94,-0.0729
3107,31.07,-568.93,-0.0392
3108,31.08,-568.92,-0.0118
3109,31.09,-568.91,-0.0708
3110,31.1,-568.9,-0.1027
3111,31.11,-568.89,-0.0179
3112,31.12,-568.88,0.0072
3113,31.13,-568.87,-0.0287
3114,31.14,-568.86,-0.0645
3115,31.15,-568.85,0.0468
3116,31.16,-568.84,-0.0118
3117,31.17,-568.83,0.0293
3118,31.18,-568.82,0.0698
3119,31.19,-568.81,0.1929
3120,31.2,-568.8,0.1913
3121,31.21,-568.79,0.2569
3122,31.22,-568.78,0.2557
3123,31.23,-568.77,0.3306
3124,31.24,-568.76,0.4334
3125,31.25,-568.75,0.3405
3126,31.26,-568.74,0.4557
3127,31.27,-568.73,0.3894
3128,31.28,-568.72,0.2172
3129,31.29,-568.71,0.215
3130,31.3,-568.7,0.1272
3131,31.31,-568.69,0.119
3132,31.32,-568.68,0.0714
3133,31.33,-568.67,-0.0537
3134,31.34,-568.66,-0.0026
3135,31.35,-568.65,-0.0038
3136,31.36,-568.64,-0.0862
3137,31.37,-568.63,-0.0554
3138,31.38,-568.62,0.0353
3139,31.39,-568.61,-0.0611
3140,31.4,-568.6,-0.1143
3141,31.41,-568.59,-0.1089
3142,31.42,-568.58,-0.0656
3143,31.43,-568.57,-0.0868
3144,31.44,-568.56,-0.0382
3145,31.45,-568.55,0.0007
3146,31.46,-568.54,-0.0082
3147,31.47,-568.53,0.0057
3148,31.48,-568.52,-0.0879
3149,31.49,-568.51,-0.0362
3150,31.5,-568.5,-0.0184
3151,31.51,-568.49,0.0327
3152,31.52,-568.48,-0.0255
3153,31.53,-568.47,-0.0366
3154,31.54,-568.46,-0.0686
3155,31.55,-568.45,-0.0594
3156,31.56,-568.44,-0.0249
3157,31.57,-568.43,-0.0033
3158,31.58,-568.42,-0.0406
3159,31.59,-568.41,-0.064
3160,31.6,-568.4,-0.0121
3161,31.61,-568.39,0.0035
3162,31.62,-568.38,-0.0202
3163,31.63,-568.37,0.0151
3164,31.64,-568.36,-0.0674
3165,31.65,-568.35,0.0184
3166,31.66,-568.34,0.0042
3167,31.67,-568.33,-0.0535
3168,31.68,-568.32,-0.0026
3169,31.69,-568.31,0.0036
3170,31.7,-568.3,0.0012
3171,31.71,-568.29,-0.0099
3172,31.72,-568.28,0.0377
3173,31.73,-568.27,0.017
3174,31.74,-568.26,-0.0183
3175,31.75,-568.25,0.0299
3176,31.76,-568.24,0.023
3177,31.77,-568.23,0.0044
3178,31.78,-568.22,-0.0198
3179,31.79,-568.21,-0.0538
3180,31.8,-568.2,0.0075
3181,31.81,-568.19,-0.0227
3182,31.82,-568.18,0.0337
3183,31.83,-568.17,-0.0236
3184,31.84,-568.16,0.0549
3185,31.85,-568.15,0.0856
3186,31.86,-568.14,0.0598
3187,31.87,-568.13,0.1561
3188,31.88,-568.12,0.1627
3189,31.89,-568.11,0.2051
3190,31.9,-568.1,0.1387
3191,31.91,-568.09,0.0752
3192,31.92,-568.08,0.0284
3193,31.93,-568.07,0.0001
3194,31.94,-568.06,0.0107
3195,31.95,-568.05,-0.0175
3196,31.96,-568.04,-0.0064
3197,31.97,-568.03,0.0078
3198,31.98,-568.02,0.0208
3199,31.99,-568.01,-0.0392
3200,32,-568,0.403
3201,32.01,-567.99,2.0066
3202,32.02,-567.98,3.9433
3203,32.03,-567.97,3.5389
3204,32.04,-567.96,0.1837
3205,32.05,-567.95,-0.5308
3206,32.06,-567.94,0.0094
3207,32.07,-567.93,0.0213
3208,32.08,-567.92,-0.0162
3209,32.09,-567.91,-0.0652
3210,32.1,-567.9,-0.0766
3211,32.11,-567.89,-0.073
3212,32.12,-567.88,-0.0932
3213,32.13,-567.87,-0.0452
3214,32.14,-567.86,-0.0597
3215,32.15,-567.85,-0.1047
3216,32.16,-567.84,-0.0781
3217,32.17,-567.83,-0.0485
3218,32.18,-567.82,-0.0349
3219,32.19,-567.81,-0.0773
3220,32.2,-567.8,-0.0708
3221,32.21,-567.79,-0.0636
3222,32.22,-567.78,-0.0115
3223,32.23,-567.77,-0.0368
3224,32.24,-567.76,-0.058
3225,32.25,-567.75,-0.058
3226,32.26,-567.74,0.106
3227,32.27,-567.73,0.0119
3228,32.28,-567.72,-0.0515
3229,32.29,-567.71,0.0465
3230,32.3,-567.7,-0.0026
3231,32.31,-567.69,0.0963
3232,32.32,-567.68,0.1959
3233,32.33,-567.67,0.3279
3234,32.34,-567.66,0.2162
3235,32.35,-567.65,0.4083
3236,32.36,-567.64,0.5496
3237,32.37,-567.63,0.3552
3238,32.38,-567.62,0.4311
3239,32.39,-567.61,0.4015
3240,32.4,-567.6,0.3962
3241,32.41,-567.59,0.2236
3242,32.42,-567.58,0.1547
3243,32.43,-567.57,0.1765
3244,32.44,-567.56,0.0792
3245,32.45,-567.55,0.0988
3246,32.46,-567.54,-0.0425
3247,32.47,-567.53,-0.1378
3248,32.48,-567.52,0.0353
3249,32.49,-567.51,-0.0514
3250,32.5,-567.5,0.019
3251,32.51,-567.49,0.0249
3252,32.52,-567.48,0.0164
3253,32.53,-567.47,-0.1087
3254,32.54,-567.46,-0.1051
3255,32.55,-567.45,-0.0363
3256,32.56,-567.44,0.0544
3257,32.57,-567.43,0.1441
3258,32.58,-567.42,-0.0478
3259,32.59,-567.41,-0.0462
3260,32.6,-567.4,0.0553
3261,32.61,-567.39,0.1054
3262,32.62,-567.38,-0.0017
3263,32.63,-567.37,0.0016
3264,32.64,-567.36,0.0302
3265,32.65,-567.35,0.1101
3266,32.66,-567.34,0.0209
3267,32.67,-567.33,-0.1335
3268,32.68,-567.32,-0.0423
3269,32.69,-567.31,0.0245
3270,32.7,-567.3,-0.0076
3271,32.71,-567.29,-0.0007
3272,32.72,-567.28,0.087
3273,32.73,-567.27,0.0588
3274,32.74,-567.26,-0.038
3275,32.75,-567.25,0.034
3276,32.76,-567.24,-0.1381
3277,32.77,-567.23,0.1155
3278,32.78,-567.22,-0.0834
3279,32.79,-567.21,0.0594
3280,32.8,-567.2,-0.0092
3281,32.81,-567.19,0.017
3282,32.82,-567.18,0.0021
3283,32.83,-567.17,-0.1038
3284,32.84,-567.16,-0.0094
3285,32.85,-567.15,-0.0257
3286,32.86,-567.14,-0.1436
3287,32.87,-567.13,-0.1151
3288,32.88,-567.12,0.004
3289,32.89,-567.11,-0.0156
3290,32.9,-567.1,0.0037
3291,32.91,-567.09,-0.1694
3292,32.92,-567.08,-0.1223
3293,32.93,-567.07,-0.0963
3294,32.94,-567.06,-0.0094
3295,32.95,-567.05,0.0273
3296,32.96,-567.04,-0.1125
3297,32.97,-567.03,-0.0722
3298,32.98,-567.02,-0.0853
3299,32.99,-567.01,0.0601
3300,33,-567,0.1632
3301,33.01,-566.99,0.0929
3302,33.02,-566.98,0.122
3303,33.03,-566.97,0.1631
3304,33.04,-566.96,0.0058
3305,33.05,-566.95,-0.0025
3306,33.06,-566.94,-0.0843
3307,33.07,-566.93,-0.0911
3308,33.08,-566.92,-0.0789
3309,33.09,-566.91,-0.0384
3310,33.1,-566.9,-0.0481
3311,33.11,-566.89,-0.0371
3312,33.12,-566.88,-0.0327
3313,33.13,-566.87,0.4694
3314,33.14,-566.86,1.7996
3315,33.15,-566.85,3.7958
3316,33.16,-566.84,4.0687
3317,33.17,-566.83,0.4649
3318,33.18,-566.82,-0.7108
3319,33.19,-566.81,0.0181
3320,33.2,-566.8,0.0298
3321,33.21,-566.79,0.0803
3322,33.22,-566.78,-0.0513
3323,33.23,-566.77,-0.1417
3324,33.24,-566.76,-0.0685
3325,33.25,-566.75,0.0139
3326,33.26,-566.74,0.0441
3327,33.27,-566.73,-0.2622
3328,33.28,-566.72,-0.0926
3329,33.29,-566.71,-0.0986
3330,33.3,-566.7,-0.0417
3331,33.31,-566.69,-0.0396
3332,33.32,-566.68,-0.0032
3333,33.33,-566.67,-0.1768
3334,33.34,-566.66,-0.1397
3335,33.35,-566.65,-0.0569
3336,33.36,-566.64,-0.0797
3337,33.37,-566.63,-0.1073
3338,33.38,-566.62,-0.1151
3339,33.39,-566.61,-0.0096
3340,33.4,-566.6,-0.2371
3341,33.41,-566.59,0.0162
3342,33.42,-566.58,0.1545
3343,33.43,-566.57,0.0267
3344,33.44,-566.56,0.2076
3345,33.45,-566.55,0.2884
3346,33.46,-566.54,0.2258
3347,33.47,-566.53,0.4927
3348,33.48,-566.52,0.3828
3349,33.49,-566.51,0.4709
3350,33.5,-566.5,0.5692
3351,33.51,-566.49,0.5144
3352,33.52,-566.48,0.5198
3353,33.53,-566.47,0.3108
3354,33.54,-566.46,0.1966
3355,33.55,-566.45,0.1193
3356,33.56,-566.44,0.1395
3357,33.57,-566.43,0.0864
3358,33.58,-566.42,-0.0096
3359,33.59,-566.41,0.0795
3360,33.6,-566.4,0.0684
3361,33.61,-566.39,0.1134
3362,33.62,-566.38,0.0439
3363,33.63,-566.37,-0.101
3364,33.64,-566.36,-0.0312
3365,33.65,-566.35,-0.0108
3366,33.66,-566.34,0.0543
3367,33.67,-566.33,-0.1062
3368,33.68,-566.32,-0.0233
3369,33.69,-566.31,-0.0043
3370,33.7,-566.3,0.0338
3371,33.71,-566.29,-0.108
3372,33.72,-566.28,-0.085
3373,33.73,-566.27,0.0391
3374,33.74,-566.26,0.028
3375,33.75,-566.25,-0.0787
3376,33.76,-566.24,0.012
3377,33.77,-566.23,0.0122
3378,33.78,-566.22,-0.0261
3379,33.79,-566.21,0.0089
3380,33.8,-566.2,-0.031
3381,33.81,-566.19,-0.0038
3382,33.82,-566.18,-0.0457
3383,33.83,-566.17,0.0204
3384,33.84,-566.16,-0.042
3385,33.85,-566.15,-0.0715
3386,33.86,-566.14,0.1627
3387,33.87,-566.13,-0.015
3388,33.88,-566.12,-0.1683
3389,33.89,-566.11,0.0047
3390,33.9,-566.1,-0.0064
3391,33.91,-566.09,-0.001
3392,33.92,-566.08,0.0326
3393,33.93,-566.07,-0.0364
3394,33.94,-566.06,-0.035
3395,33.95,-566.05,-0.0111
3396,33.96,-566.04,-0.0039
3397,33.97,-566.03,0.1279
3398,33.98,-566.02,-0.0747
3399,33.99,-566.01,-0.0373
3400,34,-566,0.0383
3401,34.01,-565.99,0.0115
3402,34.02,-565.98,-0.076
3403,34.03,-565.97,-0.0411
3404,34.04,-565.96,0.0056
3405,34.05,-565.95,0.0257
3406,34.06,-565.94,0.102
3407,34.07,-565.93,-0.0609
3408,34.08,-565.92,-0.0947
3409,34.09,-565.91,0.1
3410,34.1,-565.9,0.003
3411,34.11,-565.89,0.0261
3412,34.12,-565.88,0.1502
3413,34.13,-565.87,0.163
3414,34.14,-565.86,0.2125
3415,34.15,-565.85,0.213
3416,34.16,-565.84,-0.0402
3417,34.17,-565.83,0.0515
3418,34.18,-565.82,-0.0158
3419,34.19,-565.81,-0.1106
3420,34.2,-565.8,-0.0352
3421,34.21,-565.79,-0.0003
3422,34.22,-565.78,-0.0265
3423,34.23,-565.77,0.0144
3424,34.24,-565.76,0.0488
3425,34.25,-565.75,0.8978
3426,34.26,-565.74,3.0278
3427,34.27,-565.73,4.4208
3428,34.28,-565.72,1.838
3429,34.29,-565.71,-0.7578
3430,34.3,-565.7,-0.2681
3431,34.31,-565.69,-0.0343
3432,34.32,-565.68,0.0209
3433,34.33,-565.67,-0.0863
3434,34.34,-565.66,-0.1136
3435,34.35,-565.65,-0.0873
3436,34.36,-565.64,-0.0761
3437,34.37,-565.63,-0.07
3438,34.38,-565.62,-0.0711
3439,34.39,-565.61,-0.0722
3440,34.4,-565.6,-0.0591
3441,34.41,-565.59,-0.0055
3442,34.42,-565.58,-0.1221
3443,34.43,-565.57,-0.0526
3444,34.44,-565.56,-0.0069
3445,34.45,-565.55,0.0511
3446,34.46,-565.54,-0.0891
3447,34.47,-565.53,-0.1797
3448,34.48,-565.52,0.0051
3449,34.49,-565.51,-0.0605
3450,34.5,-565.5,-0.04
3451,34.51,-565.49,-0.003
3452,34.52,-565.48,0.0214
3453,34.53,-565.47,0.1455
3454,34.54,-565.46,0.0875
3455,34.55,-565.45,0.086
3456,34.56,-565.44,0.2362
3457,34.57,-565.43,0.3552
3458,34.58,-565.42,0.3232
3459,34.59,-565.41,0.3457
3460,34.6,-565.4,0.4492
3461,34.61,-565.39,0.5096
3462,34.62,-565.38,0.5334
3463,34.63,-565.37,0.3816
3464,34.64,-565.36,0.4166
3465,34.65,-565.35,0.2971
3466,34.66,-565.34,0.0885
3467,34.67,-565.33,0.1172
3468,34.68,-565.32,0.0601
3469,34.69,-565.31,0.0764
3470,34.7,-565.3,0.0271
3471,34.71,-565.29,-0.0237
3472,34.72,-565.28,-0.035
3473,34.73,-565.27,-0.0295
3474,34.74,-565.26,-0.034
3475,34.75,-565.25,-0.0272
3476,34.76,-565.24,-0.0366
3477,34.77,-565.23,-0.0141
3478,34.78,-565.22,0.0071
3479,34.79,-565.21,0.0449
3480,34.8,-565.2,-0.0121
3481,34.81,-565.19,-0.1503
3482,34.82,-565.18,-0.0709
3483,34.83,-565.17,-0.0159
3484,34.84,-565.16,-0.016
3485,34.85,-565.15,-0.0114
3486,34.86,-565.14,-0.0167
3487,34.87,-565.13,0.0054
3488,34.88,-565.12,0.0216
3489,34.89,-565.11,0.0216
3490,34.9,-565.1,-0.0047
3491,34.91,-565.09,-0.0422
3492,34.92,-565.08,0.1358
3493,34.93,-565.07,-0.0097
3494,34.94,-565.06,-0.1527
3495,34.95,-565.05,-0.0504
3496,34.96,-565.04,-0.0324
3497,34.97,-565.03,-0.0175
3498,34.98,-565.02,0.0079
3499,34.99,-565.01,0.0751
3500,35,-565,-0.0519
3501,35.01,-564.99,-0.0586
3502,35.02,-564.98,-0.0075
3503,35.03,-564.97,-0.0014
3504,35.04,-564.96,-0.0067
3505,35.05,-564.95,-0.0067
3506,35.06,-564.94,0.0439
3507,35.07,-564.93,-0.0424
3508,35.08,-564.92,-0.0424
3509,35.09,-564.91,0.0539
3510,35.1,-564.9,-0.0188
3511,35.11,-564.89,0.0747
3512,35.12,-564.88,-0.0385
3513,35.13,-564.87,-0.1068
3514,35.14,-564.86,0.1148
3515,35.15,-564.85,0.0779
3516,35.16,-564.84,0.0039
3517,35.17,-564.83,0.1572
3518,35.18,-564.82,0.1496
3519,35.19,-564.81,0.0936
3520,35.2,-564.8,0.1289
3521,35.21,-564.79,0.043
3522,35.22,-564.78,0.0416
3523,35.23,-564.77,-0.0348
3524,35.24,-564.76,-0.1089
3525,35.25,-564.75,0
3526,35.26,-564.74,0.0077
3527,35.27,-564.73,-0.0746
3528,35.28,-564.72,0.0071
3529,35.29,-564.71,0.0186
3530,35.3,-564.7,0.6641
3531,35.31,-564.69,2.6367
3532,35.32,-564.68,4.3007
3533,35.33,-564.67,2.4722
3534,35.34,-564.66,-0.581
3535,35.35,-564.65,-0.3374
3536,35.36,-564.64,0.0143
3537,35.37,-564.63,-0.1229
3538,35.38,-564.62,-0.1129
3539,35.39,-564.61,-0.0521
3540,35.4,-564.6,-0.0961
3541,35.41,-564.59,-0.1171
3542,35.42,-564.58,-0.0288
3543,35.43,-564.57,-0.0278
3544,35.44,-564.56,-0.1541
3545,35.45,-564.55,-0.0748
3546,35.46,-564.54,-0.0743
3547,35.47,-564.53,-0.1092
3548,35.48,-564.52,-0.0864
3549,35.49,-564.51,0.0089
3550,35.5,-564.5,0.0178
3551,35.51,-564.49,-0.1519
3552,35.52,-564.48,-0.1344
3553,35.53,-564.47,-0.0252
3554,35.54,-564.46,-0.0371
3555,35.55,-564.45,-0.0364
3556,35.56,-564.44,0.082
3557,35.57,-564.43,0.0081
3558,35.58,-564.42,0.0257
3559,35.59,-564.41,0.1761
3560,35.6,-564.4,0.1816
3561,35.61,-564.39,0.2663
3562,35.62,-564.38,0.2709
3563,35.63,-564.37,0.3343
3564,35.64,-564.36,0.4221
3565,35.65,-564.35,0.475
3566,35.66,-564.34,0.5476
3567,35.67,-564.33,0.5691
3568,35.68,-564.32,0.4182
3569,35.69,-564.31,0.3227
3570,35.7,-564.3,0.3045
3571,35.71,-564.29,0.1866
3572,35.72,-564.28,0.0903
3573,35.73,-564.27,0.1255
3574,35.74,-564.26,0.06
3575,35.75,-564.25,-0.0317
3576,35.76,-564.24,0.1258
3577,35.77,-564.23,0.0566
3578,35.78,-564.22,-0.1008
3579,35.79,-564.21,-0.0145
3580,35.8,-564.2,-0.0371
3581,35.81,-564.19,-0.0394
3582,35.82,-564.18,-0.0178
3583,35.83,-564.17,-0.015
3584,35.84,-564.16,-0.0847
3585,35.85,-564.15,-0.0398
3586,35.86,-564.14,-0.051
3587,35.87,-564.13,0.0197
3588,35.88,-564.12,-0.0245
3589,35.89,-564.11,0.0979
3590,35.9,-564.1,-0.0074
3591,35.91,-564.09,-0.1687
3592,35.92,-564.08,-0.0161
3593,35.93,-564.07,-0.0283
3594,35.94,-564.06,-0.0019
3595,35.95,-564.05,-0.0274
3596,35.96,-564.04,0.0111
3597,35.97,-564.03,0.0453
3598,35.98,-564.02,-0.0838
3599,35.99,-564.01,0.0704
3600,36,-564,-0.0673
3601,36.01,-563.99,-0.1003
3602,36.02,-563.98,0.0183
3603,36.03,-563.97,0.0671
3604,36.04,-563.96,-0.0249
3605,36.05,-563.95,-0.0357
3606,36.06,-563.94,-0.0361
3607,36.07,-563.93,0.0412
3608,36.08,-563.92,0.003
3609,36.09,-563.91,-0.0231
3610,36.1,-563.9,0.1592
3611,36.11,-563.89,0.0241
3612,36.12,-563.88,-0.0991
3613,36.13,-563.87,-0.0212
3614,36.14,-563.86,0.0321
3615,36.15,-563.85,-0.0026
3616,36.16,-563.84,0.0057
3617,36.17,-563.83,0.1031
3618,36.18,-563.82,0.1376
3619,36.19,-563.81,0.1286
3620,36.2,-563.8,0.1242
3621,36.21,-563.79,0.2191
3622,36.22,-563.78,0.245
3623,36.23,-563.77,0.1755
3624,36.24,-563.76,0.0965
3625,36.25,-563.75,-0.036
3626,36.26,-563.74,-0.0216
3627,36.27,-563.73,-0.0169
3628,36.28,-563.72,0.0158
3629,36.29,-563.71,0.0041
3630,36.3,-563.7,-0.0293
3631,36.31,-563.69,0.0851
3632,36.32,-563.68,0.0906
3633,36.33,-563.67,0.7667
3634,36.34,-563.66,2.6917
3635,36.35,-563.65,4.3684
3636,36.36,-563.64,2.3816
3637,36.37,-563.63,-0.5711
3638,36.38,-563.62,-0.2739
3639,36.39,-563.61,-0.0224
3640,36.4,-563.6,-0.039
3641,36.41,-563.59,-0.0771
3642,36.42,-563.58,-0.0661
3643,36.43,-563.57,-0.0766
3644,36.44,-563.56,-0.0686
3645,36.45,-563.55,-0.0598
3646,36.46,-563.54,-0.0763
3647,36.47,-563.53,-0.0624
3648,36.48,-563.52,-0.0462
3649,36.49,-563.51,-0.0699
3650,36.5,-563.5,0.0124
3651,36.51,-563.49,0.1054
3652,36.52,-563.48,-0.1637
3653,36.53,-563.47,-0.0996
3654,36.54,-563.46,-0.0848
3655,36.55,-563.45,-0.0506
3656,36.56,-563.44,-0.0375
3657,36.57,-563.43,-0.054
3658,36.58,-563.42,0.0933
3659,36.59,-563.41,0.1593
3660,36.6,-563.4,-0.0572
3661,36.61,-563.39,-0.0015
3662,36.62,-563.38,0.1116
3663,36.63,-563.37,0.2172
3664,36.64,-563.36,0.2941
3665,36.65,-563.35,0.3086
3666,36.66,-563.34,0.3976
3667,36.67,-563.33,0.4573
3668,36.68,-563.32,0.5239
3669,36.69,-563.31,0.5348
3670,36.7,-563.3,0.6256
3671,36.71,-563.29,0.5781
3672,36.72,-563.28,0.2799
3673,36.73,-563.27,0.233
3674,36.74,-563.26,0.1544
3675,36.75,-563.25,0.1277
3676,36.76,-563.24,0.0692
3677,36.77,-563.23,0.08
3678,36.78,-563.22,0.1188
3679,36.79,-563.21,-0.0253
3680,36.8,-563.2,-0.0644
3681,36.81,-563.19,0.0627
3682,36.82,-563.18,0.0127
3683,36.83,-563.17,-0.0918
3684,36.84,-563.16,-0.0379
3685,36.85,-563.15,-0.0187
3686,36.86,-563.14,-0.0006
3687,36.87,-563.13,-0.0722
3688,36.88,-563.12,-0.0281
3689,36.89,-563.11,0.0011
3690,36.9,-563.1,-0.0154
3691,36.91,-563.09,-0.0823
3692,36.92,-563.08,-0.0361
3693,36.93,-563.07,-0.0112
3694,36.94,-563.06,0.076
3695,36.95,-563.05,-0.0103
3696,36.96,-563.04,-0.0406
3697,36.97,-563.03,0.0033
3698,36.98,-563.02,-0.0305
3699,36.99,-563.01,-0.0184
3700,37,-563,-0.0396
3701,37.01,-562.99,-0.0161
3702,37.02,-562.98,0.0856
3703,37.03,-562.97,0.0164
3704,37.04,-562.96,-0.0839
3705,37.05,-562.95,-0.0527
3706,37.06,-562.94,0.0499
3707,37.07,-562.93,0.0298
3708,37.08,-562.92,-0.0453
3709,37.09,-562.91,-0.0154
3710,37.1,-562.9,0.0245
3711,37.11,-562.89,0.095
3712,37.12,-562.88,0.0026
3713,37.13,-562.87,0.0178
3714,37.14,-562.86,-0.0577
3715,37.15,-562.85,-0.0479
3716,37.16,-562.84,-0.0129
3717,37.17,-562.83,0.0363
3718,37.18,-562.82,0.0189
3719,37.19,-562.81,0.009
3720,37.2,-562.8,-0.0046
3721,37.21,-562.79,0.0178
3722,37.22,-562.78,0.1068
3723,37.23,-562.77,0.0626
3724,37.24,-562.76,0.1282
3725,37.25,-562.75,0.2044
3726,37.26,-562.74,0.132
3727,37.27,-562.73,0.2111
3728,37.28,-562.72,0.1956
3729,37.29,-562.71,0.0218
3730,37.3,-562.7,-0.0446
3731,37.31,-562.69,0.0064
3732,37.32,-562.68,0.0379
3733,37.33,-562.67,-0.0063
3734,37.34,-562.66,-0.0393
3735,37.35,-562.65,-0.0161
3736,37.36,-562.64,0.0507
3737,37.37,-562.63,0.094
3738,37.38,-562.62,1.1947
3739,37.39,-562.61,3.2255
3740,37.4,-562.6,4.3413
3741,37.41,-562.59,1.6939
3742,37.42,-562.58,-0.7387
3743,37.43,-562.57,-0.1404
3744,37.44,-562.56,-0.0044
3745,37.45,-562.55,-0.0346
3746,37.46,-562.54,-0.0817
3747,37.47,-562.53,-0.0743
3748,37.48,-562.52,-0.0379
3749,37.49,-562.51,-0.0811
3750,37.5,-562.5,-0.0955
3751,37.51,-562.49,-0.0522
3752,37.52,-562.48,-0.0773
3753,37.53,-562.47,-0.0445
3754,37.54,-562.46,-0.0577
3755,37.55,-562.45,-0.0474
3756,37.56,-562.44,-0.093
3757,37.57,-562.43,-0.0635
3758,37.58,-562.42,-0.0595
3759,37.59,-562.41,-0.0206
3760,37.6,-562.4,-0.0706
3761,37.61,-562.39,-0.0347
3762,37.62,-562.38,-0.0083
3763,37.63,-562.37,-0.0396
3764,37.64,-562.36,0.0003
3765,37.65,-562.35,0.0768
3766,37.66,-562.34,0.1096
3767,37.67,-562.33,0.1215
3768,37.68,-562.32,0.1816
3769,37.69,-562.31,0.306
3770,37.7,-562.3,0.3227
3771,37.71,-562.29,0.4138
3772,37.72,-562.28,0.4809
3773,37.73,-562.27,0.5234
3774,37.74,-562.26,0.5779
3775,37.75,-562.25,0.5018
3776,37.76,-562.24,0.4571
3777,37.77,-562.23,0.3572
3778,37.78,-562.22,0.2078
3779,37.79,-562.21,0.1946
3780,37.8,-562.2,0.1515
3781,37.81,-562.19,0.0793
3782,37.82,-562.18,0.0101
3783,37.83,-562.17,0.0599
3784,37.84,-562.16,0.0539
3785,37.85,-562.15,0.0178
3786,37.86,-562.14,0.0284
3787,37.87,-562.13,0.0222
3788,37.88,-562.12,0.0104
3789,37.89,-562.11,-0.0049
3790,37.9,-562.1,-0.0498
3791,37.91,-562.09,-0.0295
3792,37.92,-562.08,0.0101
3793,37.93,-562.07,-0.0504
3794,37.94,-562.06,-0.0192
3795,37.95,-562.05,-0.0254
3796,37.96,-562.04,-0.0653
3797,37.97,-562.03,-0.0326
3798,37.98,-562.02,-0.0084
3799,37.99,-562.01,0.0727
3800,38,-562,0.0203
3801,38.01,-561.99,-0.1077
3802,38.02,-561.98,-0.0327
3803,38.03,-561.97,0.0121
3804,38.04,-561.96,-0.0364
3805,38.05,-561.95,-0.0279
3806,38.06,-561.94,-0.0136
3807,38.07,-561.93,-0.0112
3808,38.08,-561.92,-0.0156
3809,38.09,-561.91,0.0251
3810,38.1,-561.9,0.0334
3811,38.11,-561.89,-0.008
3812,38.12,-561.88,-0.0637
3813,38.13,-561.87,-0.0408
3814,38.14,-561.86,-0.0042
3815,38.15,-561.85,-0.0119
3816,38.16,-561.84,-0.0081
3817,38.17,-561.83,-0.0096
3818,38.18,-561.82,-0.0049
3819,38.19,-561.81,0.0562
3820,38.2,-561.8,0.0707
3821,38.21,-561.79,-0.0267
3822,38.22,-561.78,-0.0436
3823,38.23,-561.77,-0.0126
3824,38.24,-561.76,0.0059
3825,38.25,-561.75,-0.0102
3826,38.26,-561.74,-0.0116
3827,38.27,-561.73,0.0012
3828,38.28,-561.72,0.0137
3829,38.29,-561.71,0.002
3830,38.3,-561.7,0.017
3831,38.31,-561.69,-0.0076
3832,38.32,-561.68,0.0574
3833,38.33,-561.67,0.1406
3834,38.34,-561.66,-0.026
3835,38.35,-561.65,-0.0774
3836,38.36,-561.64,-0.0199
3837,38.37,-561.63,0.08
3838,38.38,-561.62,-0.0776
3839,38.39,-561.61,-0.0542
3840,38.4,-561.6,0.022
3841,38.41,-561.59,0.0293
3842,38.42,-561.58,0.0359
3843,38.43,-561.57,-0.0394
3844,38.44,-561.56,0.0307
3845,38.45,-561.55,0.0524
3846,38.46,-561.54,0.1619
3847,38.47,-561.53,0.1945
3848,38.48,-561.52,0.153
3849,38.49,-561.51,0.1333
3850,38.5,-561.5,0.0644
3851,38.51,-561.49,0.0468
3852,38.52,-561.48,0.045
3853,38.53,-561.47,0.1029
3854,38.54,-561.46,-0.1074
3855,38.55,-561.45,-0.0902
3856,38.56,-561.44,-0.0011
3857,38.57,-561.43,-0.0002
3858,38.58,-561.42,-0.0015
3859,38.59,-561.41,0.152
3860,38.6,-561.4,1.5102
3861,38.61,-561.39,3.5701
3862,38.62,-561.38,4.4159
3863,38.63,-561.37,1.1989
3864,38.64,-561.36,-0.6857
3865,38.65,-561.35,0.0039
3866,38.66,-561.34,-0.1024
3867,38.67,-561.33,-0.0828
3868,38.68,-561.32,-0.0996
3869,38.69,-561.31,-0.0749
3870,38.7,-561.3,-0.0923
3871,38.71,-561.29,-0.0841
3872,38.72,-561.28,-0.0743
3873,38.73,-561.27,-0.0777
3874,38.74,-561.26,-0.0026
3875,38.75,-561.25,-0.0806
3876,38.76,-561.24,-0.1351
3877,38.77,-561.23,-0.0542
3878,38.78,-561.22,-0.0762
3879,38.79,-561.21,-0.0681
3880,38.8,-561.2,0.0307
3881,38.81,-561.19,-0.1569
3882,38.82,-561.18,-0.1325
3883,38.83,-561.17,-0.0274
3884,38.84,-561.16,-0.0643
3885,38.85,-561.15,0.012
3886,38.86,-561.14,0.1276
3887,38.87,-561.13,-0.0407
3888,38.88,-561.12,0.0596
3889,38.89,-561.11,0.134
3890,38.9,-561.1,0.1675
3891,38.91,-561.09,0.2269
3892,38.92,-561.08,0.3607
3893,38.93,-561.07,0.4077
3894,38.94,-561.06,0.3752
3895,38.95,-561.05,0.5017
3896,38.96,-561.04,0.598
3897,38.97,-561.03,0.4936
3898,38.98,-561.02,0.4033
3899,38.99,-561.01,0.3101
3900,39,-561,0.2575
3901,39.01,-560.99,0.2203
3902,39.02,-560.98,0.0638
3903,39.03,-560.97,0.0643
3904,39.04,-560.96,0.0718
3905,39.05,-560.95,0.0473
3906,39.06,-560.94,0.1
3907,39.07,-560.93,0.07
3908,39.08,-560.92,-0.0204
3909,39.09,-560.91,0.0031
3910,39.1,-560.9,-0.0004
3911,39.11,-560.89,-0.0006
3912,39.12,-560.88,-0.0266
3913,39.13,-560.87,-0.0205
3914,39.14,-560.86,-0.0774
3915,39.15,-560.85,0.0196
3916,39.16,-560.84,-0.0276
3917,39.17,-560.83,-0.0753
3918,39.18,-560.82,0.0578
3919,39.19,-560.81,-0.0236
3920,39.2,-560.8,-0.0454
3921,39.21,-560.79,0.014
3922,39.22,-560.78,-0.0182
3923,39.23,-560.77,-0.0172
3924,39.24,-560.76,0.0288
3925,39.25,-560.75,0.0239
3926,39.26,-560.74,-0.0709
3927,39.27,-560.73,-0.004
3928,39.28,-560.72,-0.0038
3929,39.29,-560.71,0.0256
3930,39.3,-560.7,0.0047
3931,39.31,-560.69,0.005
3932,39.32,-560.68,-0.0447
3933,39.33,-560.67,-0.0389
3934,39.34,-560.66,-0.0118
3935,39.35,-560.65,-0.0571
3936,39.36,-560.64,-0.0273
3937,39.37,-560.63,0.0269
3938,39.38,-560.62,-0.0072
3939,39.39,-560.61,-0.043
3940,39.4,-560.6,0.0233
3941,39.41,-560.59,-0.0677
3942,39.42,-560.58,0.0076
3943,39.43,-560.57,0.0506
3944,39.44,-560.56,-0.0484
3945,39.45,-560.55,-0.0352
3946,39.46,-560.54,-0.0118
3947,39.47,-560.53,-0.0361
3948,39.48,-560.52,0.0029
3949,39.49,-560.51,0.0584
3950,39.5,-560.5,-0.0423
3951,39.51,-560.49,-0.0308
3952,39.52,-560.48,0.0768
3953,39.53,-560.47,-0.0389
3954,39.54,-560.46,-0.0399
3955,39.55,-560.45,0.0559
3956,39.56,-560.44,-0.0031
3957,39.57,-560.43,-0.0489
3958,39.58,-560.42,0.0152
3959,39.59,-560.41,0.0335
3960,39.6,-560.4,-0.0263
3961,39.61,-560.39,0.0014
3962,39.62,-560.38,0.0263
3963,39.63,-560.37,-0.008
3964,39.64,-560.36,0.0515
3965,39.65,-560.35,-0.0533
3966,39.66,-560.34,-0.0345
3967,39.67,-560.33,0.0381
3968,39.68,-560.32,0.0023
3969,39.69,-560.31,-0.0113
3970,39.7,-560.3,0.08
3971,39.71,-560.29,0.103
3972,39.72,-560.28,0.0718
3973,39.73,-560.27,0.0976
3974,39.74,-560.26,0.1723
3975,39.75,-560.25,0.224
3976,39.76,-560.24,0.066
3977,39.77,-560.23,0.0967
3978,39.78,-560.22,0.1361
3979,39.79,-560.21,0.0062
3980,39.8,-560.2,-0.0624
3981,39.81,-560.19,-0.0159
3982,39.82,-560.18,-0.0264
3983,39.83,-560.17,0.0658
3984,39.84,-560.16,0.0749
3985,39.85,-560.15,-0.0819
3986,39.86,-560.14,0.093
3987,39.87,-560.13,1.1525
3988,39.88,-560.12,3.3371
3989,39.89,-560.11,4.6052
3990,39.9,-560.1,1.8526
3991,39.91,-560.09,-0.6603
3992,39.92,-560.08,-0.1233
3993,39.93,-560.07,-0.0206
3994,39.94,-560.06,-0.0568
3995,39.95,-560.05,-0.0662
3996,39.96,-560.04,-0.0998
3997,39.97,-560.03,-0.0491
3998,39.98,-560.02,-0.025
3999,39.99,-560.01,-0.1239
4000,40,-560,-0.1283
4001,40.01,-559.99,-0.1056
4002,40.02,-559.98,-0.0494
4003,40.03,-559.97,-0.087
4004,40.04,-559.96,-0.0687
4005,40.05,-559.95,-0.0913
4006,40.06,-559.94,-0.04
4007,40.07,-559.93,-0.0353
4008,40.08,-559.92,-0.1557
4009,40.09,-559.91,-0.0568
4010,40.1,-559.9,-0.0706
4011,40.11,-559.89,-0.0472
4012,40.12,-559.88,0.0223
4013,40.13,-559.87,-0.004
4014,40.14,-559.86,-0.0729
4015,40.15,-559.85,0.0504
4016,40.16,-559.84,0.1345
4017,40.17,-559.83,0.1299
4018,40.18,-559.82,0.1817
4019,40.19,-559.81,0.3393
4020,40.2,-559.8,0.3826
4021,40.21,-559.79,0.4044
4022,40.22,-559.78,0.5199
4023,40.23,-559.77,0.5191
4024,40.24,-559.76,0.5546
4025,40.25,-559.75,0.5382
4026,40.26,-559.74,0.395
4027,40.27,-559.73,0.2558
4028,40.28,-559.72,0.2289
4029,40.29,-559.71,0.1308
4030,40.3,-559.7,0.0314
4031,40.31,-559.69,0.054
4032,40.32,-559.68,0.0492
4033,40.33,-559.67,0.0473
4034,40.34,-559.66,0.1078
4035,40.35,-559.65,0.0223
4036,40.36,-559.64,-0.005
4037,40.37,-559.63,0.0137
4038,40.38,-559.62,0.0038
4039,40.39,-559.61,-0.0364
4040,40.4,-559.6,-0.025
4041,40.41,-559.59,-0.0348
4042,40.42,-559.58,-0.0556
4043,40.43,-559.57,-0.0075
4044,40.44,-559.56,-0.0006
4045,40.45,-559.55,-0.0467
4046,40.46,-559.54,-0.0636
4047,40.47,-559.53,-0.0329
4048,40.48,-559.52,-0.0279
4049,40.49,-559.51,-0.0077
4050,40.5,-559.5,-0.0117
4051,40.51,-559.49,0.0057
4052,40.52,-559.48,0.0111
4053,40.53,-559.47,-0.0388
4054,40.54,-559.46,-0.0333
4055,40.55,-559.45,0.0138
4056,40.56,-559.44,-0.0443
4057,40.57,-559.43,-0.0126
4058,40.58,-559.42,0.0237
4059,40.59,-559.41,-0.0942
4060,40.6,-559.4,-0.0545
4061,40.61,-559.39,-0.0002
4062,40.62,-559.38,-0.174
4063,40.63,-559.37,-0.1659
4064,40.64,-559.36,-0.1013
4065,40.65,-559.35,-0.0203
4066,40.66,-559.34,-0.0883
4067,40.67,-559.33,0.0123
4068,40.68,-559.32,-0.0302
4069,40.69,-559.31,-0.0327
4070,40.7,-559.3,0.0305
4071,40.71,-559.29,0.0193
4072,40.72,-559.28,0.0416
4073,40.73,-559.27,0.0473
4074,40.74,-559.26,0.0521
4075,40.75,-559.25,-0.0084
4076,40.76,-559.24,0.1213
4077,40.77,-559.23,0.0822
4078,40.78,-559.22,-0.0677
4079,40.79,-559.21,0.0266
4080,40.8,-559.2,0.0384
4081,40.81,-559.19,0.0613
4082,40.82,-559.18,0.013
4083,40.83,-559.17,0.068
4084,40.84,-559.16,-0.0065
4085,40.85,-559.15,-0.0718
4086,40.86,-559.14,-0.0169
4087,40.87,-559.13,0.0545
4088,40.88,-559.12,0.0525
4089,40.89,-559.11,0.0245
4090,40.9,-559.1,-0.0062
4091,40.91,-559.09,-0.0394
4092,40.92,-559.08,-0.0289
4093,40.93,-559.07,-0.027
4094,40.94,-559.06,-0.0016
4095,40.95,-559.05,0.009
4096,40.96,-559.04,0.0435
4097,40.97,-559.03,-0.0318
4098,40.98,-559.02,0.0329
4099,40.99,-559.01,-0.0242
4100,41,-559,-0.0445
4101,41.01,-558.99,-0.0204
4102,41.02,-558.98,0.0537
4103,41.03,-558.97,0.1143
4104,41.04,-558.96,0.1059
4105,41.05,-558.95,0.0874
4106,41.06,-558.94,0.1581
4107,41.07,-558.93,0.0949
4108,41.08,-558.92,0.1428
4109,41.09,-558.91,0.0182
4110,41.1,-558.9,0.0408
4111,41.11,-558.89,0.0084
4112,41.12,-558.88,-0.0839
4113,41.13,-558.87,0.0222
4114,41.14,-558.86,-0.0202
4115,41.15,-558.85,-0.0646
4116,41.16,-558.84,-0.0394
4117,41.17,-558.83,0.1464
4118,41.18,-558.82,1.4095
4119,41.19,-558.81,3.3773
4120,41.2,-558.8,4.1989
4121,41.21,-558.79,1.1963
4122,41.22,-558.78,-0.7819
4123,41.23,-558.77,-0.1006
4124,41.24,-558.76,-0.0516
4125,41.25,-558.75,-0.0847
4126,41.26,-558.74,-0.0487
4127,41.27,-558.73,-0.0938
4128,41.28,-558.72,-0.1123
4129,41.29,-558.71,-0.0779
4130,41.3,-558.7,-0.1104
4131,41.31,-558.69,-0.0783
4132,41.32,-558.68,-0.084
4133,41.33,-558.67,-0.0625
4134,41.34,-558.66,-0.0829
4135,41.35,-558.65,-0.0546
4136,41.36,-558.64,-0.085
4137,41.37,-558.63,-0.1149
4138,41.38,-558.62,-0.0817
4139,41.39,-558.61,-0.0536
4140,41.4,-558.6,-0.0441
4141,41.41,-558.59,-0.0952
4142,41.42,-558.58,-0.0366
4143,41.43,-558.57,-0.0089
4144,41.44,-558.56,0.0318
4145,41.45,-558.55,-0.0214
4146,41.46,-558.54,0.0384
4147,41.47,-558.53,0.1014
4148,41.48,-558.52,0.2416
4149,41.49,-558.51,0.2171
4150,41.5,-558.5,0.29
4151,41.51,-558.49,0.4126
4152,41.52,-558.48,0.4608
4153,41.53,-558.47,0.4576
4154,41.54,-558.46,0.5015
4155,41.55,-558.45,0.5114
4156,41.56,-558.44,0.4859
4157,41.57,-558.43,0.3853
4158,41.58,-558.42,0.2111
4159,41.59,-558.41,0.1201
4160,41.6,-558.4,0.1178
4161,41.61,-558.39,0.0669
4162,41.62,-558.38,0.0611
4163,41.63,-558.37,0.0506
4164,41.64,-558.36,0.0989
4165,41.65,-558.35,-0.0414
4166,41.66,-558.34,0.0038
4167,41.67,-558.33,-0.0007
4168,41.68,-558.32,-0.052
4169,41.69,-558.31,0.0212
4170,41.7,-558.3,-0.0529
4171,41.71,-558.29,-0.0514
4172,41.72,-558.28,-0.0296
4173,41.73,-558.27,0.0247
4174,41.74,-558.26,-0.0363
4175,41.75,-558.25,-0.0676
4176,41.76,-558.24,0.0282
4177,41.77,-558.23,0.0188
4178,41.78,-558.22,-0.0152
4179,41.79,-558.21,-0.0177
4180,41.8,-558.2,-0.0094
4181,41.81,-558.19,-0
4182,41.82,-558.18,0.0316
4183,41.83,-558.17,-0.0242
4184,41.84,-558.16,-0.0062
4185,41.85,-558.15,0.0288
4186,41.86,-558.14,-0.0418
4187,41.87,-558.13,-0.0623
4188,41.88,-558.12,0.0002
4189,41.89,-558.11,-0.0023
4190,41.9,-558.1,-0.0105
4191,41.91,-558.09,0.0211
4192,41.92,-558.08,-0.0251
4193,41.93,-558.07,-0.0499
4194,41.94,-558.06,-0.0332
4195,41.95,-558.05,-0.028
4196,41.96,-558.04,0.0284
4197,41.97,-558.03,-0.0425
4198,41.98,-558.02,-0.011
4199,41.99,-558.01,-0.0248
4200,42,-558,-0.0496
4201,42.01,-557.99,-0.0065
4202,42.02,-557.98,0.0107
4203,42.03,-557.97,0.0132
4204,42.04,-557.96,-0.0054
4205,42.05,-557.95,-0.016
4206,42.06,-557.94,-0.0211
4207,42.07,-557.93,-0.0281
4208,42.08,-557.92,0.0138
4209,42.09,-557.91,-0.0116
4210,42.1,-557.9,0.0288
4211,42.11,-557.89,-0.0097
4212,42.12,-557.88,-0.0076
4213,42.13,-557.87,0.009
4214,42.14,-557.86,-0.0337
4215,42.15,-557.85,-0.0291
4216,42.16,-557.84,0.0365
4217,42.17,-557.83,0.0415
4218,42.18,-557.82,0.0274
4219,42.19,-557.81,-0.0385
4220,42.2,-557.8,0.0053
4221,42.21,-557.79,0.0562
4222,42.22,-557.78,0.0907
4223,42.23,-557.77,0.1131
4224,42.24,-557.76,0.1141
4225,42.25,-557.75,0.1717
4226,42.26,-557.74,0.1709
4227,42.27,-557.73,0.1545
4228,42.28,-557.72,0.1289
4229,42.29,-557.71,0.0462
4230,42.3,-557.7,0.0483
4231,42.31,-557.69,0.0297
4232,42.32,-557.68,-0.0372
4233,42.33,-557.67,0.01
4234,42.34,-557.66,-0.0324
4235,42.35,-557.65,0.0244
4236,42.36,-557.64,0.0082
4237,42.37,-557.63,0.563
4238,42.38,-557.62,2.4104
4239,42.39,-557.61,4.3557
4240,42.4,-557.6,3.0325
4241,42.41,-557.59,-0.2855
4242,42.42,-557.58,-0.4035
4243,42.43,-557.57,-0.0424
4244,42.44,-557.56,-0.0204
4245,42.45,-557.55,-0.0308
4246,42.46,-557.54,-0.0993
4247,42.47,-557.53,-0.1231
4248,42.48,-557.52,-0.0636
4249,42.49,-557.51,-0.0868
4250,42.5,-557.5,-0.0934
4251,42.51,-557.49,-0.0656
4252,42.52,-557.48,-0.0717
4253,42.53,-557.47,-0.0742
4254,42.54,-557.46,-0.0522
4255,42.55,-557.45,-0.0381
4256,42.56,-557.44,-0.0784
4257,42.57,-557.43,-0.0846
4258,42.58,-557.42,-0.0729
4259,42.59,-557.41,-0.0489
4260,42.6,-557.4,-0.0366
4261,42.61,-557.39,-0.0322
4262,42.62,-557.38,-0.0335
4263,42.63,-557.37,-0.0121
4264,42.64,-557.36,0.0413
4265,42.65,-557.35,0.0555
4266,42.66,-557.34,0.1911
4267,42.67,-557.33,0.1322
4268,42.68,-557.32,0.224
4269,42.69,-557.31,0.3263
4270,42.7,-557.3,0.3517
4271,42.71,-557.29,0.4271
4272,42.72,-557.28,0.472
4273,42.73,-557.27,0.5281
4274,42.74,-557.26,0.5223
4275,42.75,-557.25,0.5392
4276,42.76,-557.24,0.4288
4277,42.77,-557.23,0.3855
4278,42.78,-557.22,0.2371
4279,42.79,-557.21,0.0865
4280,42.8,-557.2,0.1012
4281,42.81,-557.19,0.0896
4282,42.82,-557.18,0.0532
4283,42.83,-557.17,0.0302
4284,42.84,-557.16,0.1077
4285,42.85,-557.15,-0.0298
4286,42.86,-557.14,-0.0391
4287,42.87,-557.13,-0.0288
4288,42.88,-557.12,0.0167
4289,42.89,-557.11,-0.051
4290,42.9,-557.1,-0.0059
4291,42.91,-557.09,0.0098
4292,42.92,-557.08,-0.0674
4293,42.93,-557.07,-0.0552
4294,42.94,-557.06,-0.0583
4295,42.95,-557.05,0.0067
4296,42.96,-557.04,-0.0411
4297,42.97,-557.03,-0.0548
4298,42.98,-557.02,-0.028
4299,42.99,-557.01,0.0085
4300,43,-557,0.0171
4301,43.01,-556.99,0.0034
4302,43.02,-556.98,0.0134
4303,43.03,-556.97,0.0167
4304,43.04,-556.96,-0.0221
4305,43.05,-556.95,-0.0492
4306,43.06,-556.94,-0.0193
4307,43.07,-556.93,0.0445
4308,43.08,-556.92,-0.0272
4309,43.09,-556.91,-0.0009
4310,43.1,-556.9,-0.0221
4311,43.11,-556.89,-0.0214
4312,43.12,-556.88,0.0447
4313,43.13,-556.87,0.0241
4314,43.14,-556.86,-0.0388
4315,43.15,-556.85,-0.0119
4316,43.16,-556.84,-0.0145
4317,43.17,-556.83,-0.0142
4318,43.18,-556.82,0.0708
4319,43.19,-556.81,-0.0284
4320,43.2,-556.8,-0.0506
4321,43.21,-556.79,-0.0332
4322,43.22,-556.78,-0.0007
4323,43.23,-556.77,0.0029
4324,43.24,-556.76,-0.0025
4325,43.25,-556.75,0.0495
4326,43.26,-556.74,-0.0307
4327,43.27,-556.73,-0.0452
4328,43.28,-556.72,-0.0193
4329,43.29,-556.71,-0.0207
4330,43.3,-556.7,0.0284
4331,43.31,-556.69,-0.0654
4332,43.32,-556.68,-0.0156
4333,43.33,-556.67,0.0236
4334,43.34,-556.66,0.0424
4335,43.35,-556.65,-0.0407
4336,43.36,-556.64,-0.0274
4337,43.37,-556.63,-0.0139
4338,43.38,-556.62,-0.0143
4339,43.39,-556.61,0.0367
4340,43.4,-556.6,0.0099
4341,43.41,-556.59,0.0005
4342,43.42,-556.58,0.0213
4343,43.43,-556.57,0.079
4344,43.44,-556.56,0.1177
4345,43.45,-556.55,0.1274
4346,43.46,-556.54,0.2319
4347,43.47,-556.53,0.1126
4348,43.48,-556.52,0.1041
4349,43.49,-556.51,0.1153
4350,43.5,-556.5,0.0493
4351,43.51,-556.49,0.0108
4352,43.52,-556.48,-0.0311
4353,43.53,-556.47,-0.0359
4354,43.54,-556.46,-0.0244
4355,43.55,-556.45,0.0005
4356,43.56,-556.44,0.0636
4357,43.57,-556.43,-0.064
4358,43.58,-556.42,0.8118
4359,43.59,-556.41,2.6979
4360,43.6,-556.4,4.4218
4361,43.61,-556.39,2.5819
4362,43.62,-556.38,-0.4728
4363,43.63,-556.37,-0.2849
4364,43.64,-556.36,-0.0009
4365,43.65,-556.35,-0.0225
4366,43.66,-556.34,-0.1203
4367,43.67,-556.33,-0.0337
4368,43.68,-556.32,-0.0807
4369,43.69,-556.31,-0.0994
4370,43.7,-556.3,-0.0582
4371,43.71,-556.29,-0.0391
4372,43.72,-556.28,-0.1036
4373,43.73,-556.27,-0.0541
4374,43.74,-556.26,-0.1086
4375,43.75,-556.25,-0.0263
4376,43.76,-556.24,-0.0529
4377,43.77,-556.23,-0.1023
4378,43.78,-556.22,-0.0389
4379,43.79,-556.21,-0.0738
4380,43.8,-556.2,-0.0626
4381,43.81,-556.19,-0.0155
4382,43.82,-556.18,-0.0408
4383,43.83,-556.17,-0.0557
4384,43.84,-556.16,-0.007
4385,43.85,-556.15,0.0319
4386,43.86,-556.14,0.0846
4387,43.87,-556.13,0.1067
4388,43.88,-556.12,0.1267
4389,43.89,-556.11,0.2481
4390,43.9,-556.1,0.312
4391,43.91,-556.09,0.4156
4392,43.92,-556.08,0.461
4393,43.93,-556.07,0.4497
4394,43.94,-556.06,0.5309
4395,43.95,-556.05,0.5415
4396,43.96,-556.04,0.5082
4397,43.97,-556.03,0.4187
4398,43.98,-556.02,0.3738
4399,43.99,-556.01,0.2393
4400,44,-556,0.092
4401,44.01,-555.99,0.0713
4402,44.02,-555.98,0.1268
4403,44.03,-555.97,0.0522
4404,44.04,-555.96,0.0041
4405,44.05,-555.95,0.0175
4406,44.06,-555.94,0.0251
4407,44.07,-555.93,0.0232
4408,44.08,-555.92,0.0023
4409,44.09,-555.91,0.0269
4410,44.1,-555.9,-0.0126
4411,44.11,-555.89,-0.0437
4412,44.12,-555.88,-0.0278
4413,44.13,-555.87,0.0148
4414,44.14,-555.86,-0.0318
4415,44.15,-555.85,-0.002
4416,44.16,-555.84,-0.0356
4417,44.17,-555.83,-0.0454
4418,44.18,-555.82,-0.0126
4419,44.19,-555.81,0.0333
4420,44.2,-555.8,-0.0422
4421,44.21,-555.79,-0.0151
4422,44.22,-555.78,0.0458
4423,44.23,-555.77,-0.0125
4424,44.24,-555.76,0.0005
4425,44.25,-555.75,-0.0382
4426,44.26,-555.74,0.0073
4427,44.27,-555.73,-0.042
4428,44.28,-555.72,-0.0136
4429,44.29,-555.71,0.0144
4430,44.3,-555.7,-0.0415
4431,44.31,-555.69,-0.0176
4432,44.32,-555.68,0.0276
4433,44.33,-555.67,-0.0112
4434,44.34,-555.66,-0.0399
4435,44.35,-555.65,-0.0016
4436,44.36,-555.64,-0.0027
4437,44.37,-555.63,-0.001
4438,44.38,-555.62,0.0056
4439,44.39,-555.61,0.0257
4440,44.4,-555.6,-0.057
4441,44.41,-555.59,-0.0294
4442,44.42,-555.58,-0.0059
4443,44.43,-555.57,-0.0277
4444,44.44,-555.56,0.0002
4445,44.45,-555.55,-0.0047
4446,44.46,-555.54,0.0021
4447,44.47,-555.53,-0.0081
4448,44.48,-555.52,0.0105
4449,44.49,-555.51,0.0136
4450,44.5,-555.5,-0.0416
4451,44.51,-555.49,0.0073
4452,44.52,-555.48,0.0418
4453,44.53,-555.47,-0.025
4454,44.54,-555.46,0.036
4455,44.55,-555.45,0.0178
4456,44.56,-555.44,-0.0515
4457,44.57,-555.43,0.0062
4458,44.58,-555.42,-0.0086
4459,44.59,-555.41,0.0121
4460,44.6,-555.4,0.0247
4461,44.61,-555.39,0.0416
4462,44.62,-555.38,-0.0477
4463,44.63,-555.37,0.0025
4464,44.64,-555.36,0.0212
4465,44.65,-555.35,0.0216
4466,44.66,-555.34,0.0866
4467,44.67,-555.33,0.0724
4468,44.68,-555.32,0.0556
4469,44.69,-555.31,0.1624
4470,44.7,-555.3,0.1971
4471,44.71,-555.29,0.2274
4472,44.72,-555.28,0.1354
4473,44.73,-555.27,0.0269
4474,44.74,-555.26,0.0084
4475,44.75,-555.25,-0.0113
4476,44.76,-555.24,-0.0272
4477,44.77,-555.23,-0.0221
4478,44.78,-555.22,0.0088
4479,44.79,-555.21,-0.0575
4480,44.8,-555.2,-0.0038
4481,44.81,-555.19,0.0239
4482,44.82,-555.18,0.6884
4483,44.83,-555.17,2.5524
4484,44.84,-555.16,4.3767
4485,44.85,-555.15,2.798
4486,44.86,-555.14,-0.3767
4487,44.87,-555.13,-0.3595
4488,44.88,-555.12,0.003
4489,44.89,-555.11,-0.0232
4490,44.9,-555.1,-0.1388
4491,44.91,-555.09,-0.114
4492,44.92,-555.08,-0.0277
4493,44.93,-555.07,-0.0824
4494,44.94,-555.06,-0.0864
4495,44.95,-555.05,-0.0421
4496,44.96,-555.04,-0.1657
4497,44.97,-555.03,-0.0801
4498,44.98,-555.02,-0.0702
4499,44.99,-555.01,-0.0976
4500,45,-555,-0.0507
4501,45.01,-554.99,-0.0379
4502,45.02,-554.98,-0.0885
4503,45.03,-554.97,-0.0876
4504,45.04,-554.96,-0.0812
4505,45.05,-554.95,-0.051
4506,45.06,-554.94,-0.0421
4507,45.07,-554.93,0.0597
4508,45.08,-554.92,-0.0117
4509,45.09,-554.91,-0.0711
4510,45.1,-554.9,0.0419
4511,45.11,-554.89,0.0896
4512,45.12,-554.88,0.1626
4513,45.13,-554.87,0.2236
4514,45.14,-554.86,0.3209
4515,45.15,-554.85,0.3896
4516,45.16,-554.84,0.4729
4517,45.17,-554.83,0.504
4518,45.18,-554.82,0.5083
4519,45.19,-554.81,0.6085
4520,45.2,-554.8,0.448
4521,45.21,-554.79,0.3988
4522,45.22,-554.78,0.337
4523,45.23,-554.77,0.2271
4524,45.24,-554.76,0.1524
4525,45.25,-554.75,0.1043
4526,45.26,-554.74,0.083
4527,45.27,-554.73,0.0561
4528,45.28,-554.72,0.0338
4529,45.29,-554.71,0.0315
4530,45.3,-554.7,0.04
4531,45.31,-554.69,0.0596
4532,45.32,-554.68,0.0256
4533,45.33,-554.67,-0.0008
4534,45.34,-554.66,-0.0247
4535,45.35,-554.65,0.0203
4536,45.36,-554.64,-0.024
4537,45.37,-554.63,-0.1261
4538,45.38,-554.62,-0.056
4539,45.39,-554.61,-0.0424
4540,45.4,-554.6,-0.0443
4541,45.41,-554.59,-0.0398
4542,45.42,-554.58,-0.0348
4543,45.43,-554.57,0.0709
4544,45.44,-554.56,-0.0667
4545,45.45,-554.55,-0.0043
4546,45.46,-554.54,0.1026
4547,45.47,-554.53,-0.0593
4548,45.48,-554.52,-0.1062
4549,45.49,-554.51,-0.0326
4550,45.5,-554.5,-0.029
4551,45.51,-554.49,-0.0009
4552,45.52,-554.48,-0.0463
4553,45.53,-554.47,-0.0009
4554,45.54,-554.46,0.0885
4555,45.55,-554.45,-0.1395
4556,45.56,-554.44,-0.0413
4557,45.57,-554.43,-0.0082
4558,45.58,-554.42,-0.063
4559,45.59,-554.41,-0.0293
4560,45.6,-554.4,0.0354
4561,45.61,-554.39,-0.0095
4562,45.62,-554.38,-0.0373
4563,45.63,-554.37,0.0388
4564,45.64,-554.36,-0.0514
4565,45.65,-554.35,0.0324
4566,45.66,-554.34,0.0512
4567,45.67,-554.33,0.0101
4568,45.68,-554.32,-0.0299
4569,45.69,-554.31,0.044
4570,45.7,-554.3,-0.0049
4571,45.71,-554.29,-0.0405
4572,45.72,-554.28,0.0281
4573,45.73,-554.27,-0.0522
4574,45.74,-554.26,-0.0238
4575,45.75,-554.25,0.0684
4576,45.76,-554.24,-0.055
4577,45.77,-554.23,-0.0376
4578,45.78,-554.22,-0.0089
4579,45.79,-554.21,0.0094
4580,45.8,-554.2,-0.0145
4581,45.81,-554.19,0.0644
4582,45.82,-554.18,0.0152
4583,45.83,-554.17,-0.0798
4584,45.84,-554.16,0.0135
4585,45.85,-554.15,-0.0172
4586,45.86,-554.14,-0.0084
4587,45.87,-554.13,-0.0129
4588,45.88,-554.12,-0.0109
4589,45.89,-554.11,0.0404
4590,45.9,-554.1,0.0203
4591,45.91,-554.09,-0.0097
4592,45.92,-554.08,0.1324
4593,45.93,-554.07,-0.0121
4594,45.94,-554.06,0.035
4595,45.95,-554.05,0.1237
4596,45.96,-554.04,0.1502
4597,45.97,-554.03,0.2064
4598,45.98,-554.02,0.1755
4599,45.99,-554.01,0.14
4600,46,-554,0.0982
4601,46.01,-553.99,0.0351
4602,46.02,-553.98,-0.0139
4603,46.03,-553.97,-0.0142
4604,46.04,-553.96,-0.0112
4605,46.05,-553.95,-0.0033
4606,46.06,-553.94,-0.0204
4607,46.07,-553.93,0.0826
4608,46.08,-553.92,0.0485
4609,46.09,-553.91,0.7179
4610,46.1,-553.9,2.7084
4611,46.11,-553.89,4.512
4612,46.12,-553.88,2.7912
4613,46.13,-553.87,-0.404
4614,46.14,-553.86,-0.2941
4615,46.15,-553.85,0.0846
4616,46.16,-553.84,-0.0588
4617,46.17,-553.83,-0.0342
4618,46.18,-553.82,-0.0664
4619,46.19,-553.81,-0.2035
4620,46.2,-553.8,-0.1071
4621,46.21,-553.79,-0.0995
4622,46.22,-553.78,-0.072
4623,46.23,-553.77,-0.0995
4624,46.24,-553.76,-0.1027
4625,46.25,-553.75,-0.1031
4626,46.26,-553.74,-0.0736
4627,46.27,-553.73,-0.0698
4628,46.28,-553.72,-0.0755
4629,46.29,-553.71,0.0163
4630,46.3,-553.7,-0.1689
4631,46.31,-553.69,-0.1107
4632,46.32,-553.68,-0.001
4633,46.33,-553.67,-0.1449
4634,46.34,-553.66,-0.0555
4635,46.35,-553.65,0.0649
4636,46.36,-553.64,-0.0587
4637,46.37,-553.63,-0.0446
4638,46.38,-553.62,0.0429
4639,46.39,-553.61,0.0988
4640,46.4,-553.6,0.1832
4641,46.41,-553.59,0.2529
4642,46.42,-553.58,0.3347
4643,46.43,-553.57,0.4025
4644,46.44,-553.56,0.5749
4645,46.45,-553.55,0.5877
4646,46.46,-553.54,0.4124
4647,46.47,-553.53,0.4345
4648,46.48,-553.52,0.4262
4649,46.49,-553.51,0.3451
4650,46.5,-553.5,0.2442
4651,46.51,-553.49,0.1574
4652,46.52,-553.48,0.1073
4653,46.53,-553.47,0.0769
4654,46.54,-553.46,0.0318
4655,46.55,-553.45,0.0285
4656,46.56,-553.44,0.0226
4657,46.57,-553.43,0.015
4658,46.58,-553.42,0.0127
4659,46.59,-553.41,-0.013
4660,46.6,-553.4,0.0662
4661,46.61,-553.39,0.0674
4662,46.62,-553.38,-0.089
4663,46.63,-553.37,-0.0527
4664,46.64,-553.36,-0.033
4665,46.65,-553.35,-0.0978
4666,46.66,-553.34,0.0708
