sample_idx,t_s,t_rel_peak_s,ecg_mv
59500,595,-5,0.2583
59501,595.01,-4.99,0.1786
59502,595.02,-4.98,0.1114
59503,595.03,-4.97,0.0158
59504,595.04,-4.96,-0.0308
59505,595.05,-4.95,0.0307
59506,595.06,-4.94,0.0431
59507,595.07,-4.93,0.0759
59508,595.08,-4.92,0.044
59509,595.09,-4.91,0.0465
59510,595.1,-4.9,0.019
59511,595.11,-4.89,0.1493
59512,595.12,-4.88,0.1382
59513,595.13,-4.87,-0.0063
59514,595.14,-4.86,0.0446
59515,595.15,-4.85,-0.022
59516,595.16,-4.84,-0.0058
59517,595.17,-4.83,0.0546
59518,595.18,-4.82,-0.0069
59519,595.19,-4.81,-0.0461
59520,595.2,-4.8,-0.0092
59521,595.21,-4.79,0.0633
59522,595.22,-4.78,0.786
59523,595.23,-4.77,2.2592
59524,595.24,-4.76,4.4819
59525,595.25,-4.75,2.3649
59526,595.26,-4.74,-1.2976
59527,595.27,-4.73,-0.4123
59528,595.28,-4.72,-0.1835
59529,595.29,-4.71,-0.33
59530,595.3,-4.7,-0.2749
59531,595.31,-4.69,-0.2263
59532,595.32,-4.68,-0.4113
59533,595.33,-4.67,-0.4133
59534,595.34,-4.66,-0.3193
59535,595.35,-4.65,-0.3147
59536,595.36,-4.64,-0.2699
59537,595.37,-4.63,-0.2043
59538,595.38,-4.62,-0.2406
59539,595.39,-4.61,-0.3511
59540,595.4,-4.6,-0.2829
59541,595.41,-4.59,-0.3004
59542,595.42,-4.58,-0.3139
59543,595.43,-4.57,-0.2832
59544,595.44,-4.56,-0.1533
59545,595.45,-4.55,0.1217
59546,595.46,-4.54,0.0845
59547,595.47,-4.53,0.2249
59548,595.48,-4.52,0.5995
59549,595.49,-4.51,0.7438
59550,595.5,-4.5,0.792
59551,595.51,-4.49,0.8405
59552,595.52,-4.48,0.7134
59553,595.53,-4.47,0.5294
59554,595.54,-4.46,0.4575
59555,595.55,-4.45,0.5351
59556,595.56,-4.44,0.4249
59557,595.57,-4.43,0.2843
59558,595.58,-4.42,0.2034
59559,595.59,-4.41,0.0646
59560,595.6,-4.4,-0.0865
59561,595.61,-4.39,-0.0738
59562,595.62,-4.38,-0.1825
59563,595.63,-4.37,-0.2563
59564,595.64,-4.36,-0.1215
59565,595.65,-4.35,-0.1682
59566,595.66,-4.34,-0.1579
59567,595.67,-4.33,-0.0546
59568,595.68,-4.32,0.0147
59569,595.69,-4.31,0.0977
59570,595.7,-4.3,0.2183
59571,595.71,-4.29,0.2662
59572,595.72,-4.28,0.4849
59573,595.73,-4.27,0.1
59574,595.74,-4.26,0.051
59575,595.75,-4.25,0.6932
59576,595.76,-4.24,-0.2536
59577,595.77,-4.23,0.0336
59578,595.78,-4.22,0.5282
59579,595.79,-4.21,0.3549
59580,595.8,-4.2,0.0784
59581,595.81,-4.19,0.2297
59582,595.82,-4.18,1.6856
59583,595.83,-4.17,3.5294
59584,595.84,-4.16,4.3197
59585,595.85,-4.15,0.6801
59586,595.86,-4.14,-0.9465
59587,595.87,-4.13,-0.3042
59588,595.88,-4.12,-0.2944
59589,595.89,-4.11,-0.0926
59590,595.9,-4.1,-0.2132
59591,595.91,-4.09,-0.2411
59592,595.92,-4.08,-0.2196
59593,595.93,-4.07,-0.1939
59594,595.94,-4.06,-0.188
59595,595.95,-4.05,-0.2268
59596,595.96,-4.04,-0.1879
59597,595.97,-4.03,-0.1422
59598,595.98,-4.02,-0.1084
59599,595.99,-4.01,-0.2401
59600,596,-4,-0.3096
59601,596.01,-3.99,-0.2181
59602,596.02,-3.98,-0.2096
59603,596.03,-3.97,-0.2595
59604,596.04,-3.96,-0.0715
59605,596.05,-3.95,0.2107
59606,596.06,-3.94,0.2038
59607,596.07,-3.93,0.2428
59608,596.08,-3.92,0.3346
59609,596.09,-3.91,0.4617
59610,596.1,-3.9,0.7483
59611,596.11,-3.89,0.633
59612,596.12,-3.88,0.4057
59613,596.13,-3.87,0.3321
59614,596.14,-3.86,0.2003
59615,596.15,-3.85,0.164
59616,596.16,-3.84,0.0733
59617,596.17,-3.83,-0.0776
59618,596.18,-3.82,-0.059
59619,596.19,-3.81,-0.0406
59620,596.2,-3.8,-0.1007
59621,596.21,-3.79,-0.0258
59622,596.22,-3.78,-0.0701
59623,596.23,-3.77,-0.1286
59624,596.24,-3.76,-0.106
59625,596.25,-3.75,-0.0217
59626,596.26,-3.74,-0.2163
59627,596.27,-3.73,0.0668
59628,596.28,-3.72,0.0512
59629,596.29,-3.71,-0.0771
59630,596.3,-3.7,0.0425
59631,596.31,-3.69,0.0434
59632,596.32,-3.68,0.1606
59633,596.33,-3.67,0.2812
59634,596.34,-3.66,0.0959
59635,596.35,-3.65,-0.291
59636,596.36,-3.64,0.1368
59637,596.37,-3.63,0.1706
59638,596.38,-3.62,-0.1017
59639,596.39,-3.61,0.043
59640,596.4,-3.6,0.112
59641,596.41,-3.59,0.233
59642,596.42,-3.58,1.1808
59643,596.43,-3.57,2.8593
59644,596.44,-3.56,4.3018
59645,596.45,-3.55,0.9298
59646,596.46,-3.54,-1.2291
59647,596.47,-3.53,-0.1013
59648,596.48,-3.52,-0.013
59649,596.49,-3.51,0.0138
59650,596.5,-3.5,-0.2065
59651,596.51,-3.49,-0.0462
59652,596.52,-3.48,0.0162
59653,596.53,-3.47,-0.0198
59654,596.54,-3.46,-0.0499
59655,596.55,-3.45,0.0056
59656,596.56,-3.44,-0.0854
59657,596.57,-3.43,-0.1052
59658,596.58,-3.42,-0.1959
59659,596.59,-3.41,-0.2176
59660,596.6,-3.4,-0.0133
59661,596.61,-3.39,-0.0496
59662,596.62,-3.38,-0.091
59663,596.63,-3.37,0.0397
59664,596.64,-3.36,0.0834
59665,596.65,-3.35,0.0909
59666,596.66,-3.34,0.2509
59667,596.67,-3.33,0.3841
59668,596.68,-3.32,0.5851
59669,596.69,-3.31,0.6616
59670,596.7,-3.3,0.6293
59671,596.71,-3.29,0.6604
59672,596.72,-3.28,0.4456
59673,596.73,-3.27,0.1612
59674,596.74,-3.26,0.1502
59675,596.75,-3.25,0.2084
59676,596.76,-3.24,-0.0184
59677,596.77,-3.23,-0.0871
59678,596.78,-3.22,0.0315
59679,596.79,-3.21,-0.0751
59680,596.8,-3.2,0.1921
59681,596.81,-3.19,-0.0248
59682,596.82,-3.18,-0.0128
59683,596.83,-3.17,-0.0908
59684,596.84,-3.16,0.1186
59685,596.85,-3.15,-0.0161
59686,596.86,-3.14,-0.115
59687,596.87,-3.13,-0.0586
59688,596.88,-3.12,-0.0336
59689,596.89,-3.11,0.0287
59690,596.9,-3.1,-0.1186
59691,596.91,-3.09,0.136
59692,596.92,-3.08,0.1944
59693,596.93,-3.07,0.0014
59694,596.94,-3.06,-0.1195
59695,596.95,-3.05,0.0201
59696,596.96,-3.04,-0.1046
59697,596.97,-3.03,0.0064
59698,596.98,-3.02,0.1935
59699,596.99,-3.01,-0.1
59700,597,-3,-0.1408
59701,597.01,-2.99,0.4213
59702,597.02,-2.98,1.8549
59703,597.03,-2.97,4.0182
59704,597.04,-2.96,3.67
59705,597.05,-2.95,-0.658
59706,597.06,-2.94,-1.0975
59707,597.07,-2.93,-0.4503
59708,597.08,-2.92,-0.3426
59709,597.09,-2.91,-0.5065
59710,597.1,-2.9,-0.2279
59711,597.11,-2.89,-0.1728
59712,597.12,-2.88,-0.1442
59713,597.13,-2.87,-0.3114
59714,597.14,-2.86,-0.3228
59715,597.15,-2.85,-0.2423
59716,597.16,-2.84,-0.2769
59717,597.17,-2.83,-0.3622
59718,597.18,-2.82,-0.3105
59719,597.19,-2.81,-0.2571
59720,597.2,-2.8,-0.4833
59721,597.21,-2.79,-0.2972
59722,597.22,-2.78,-0.3507
59723,597.23,-2.77,-0.3083
59724,597.24,-2.76,-0.2565
59725,597.25,-2.75,-0.3266
59726,597.26,-2.74,-0.1581
59727,597.27,-2.73,0.0732
59728,597.28,-2.72,0.2352
59729,597.29,-2.71,0.3978
59730,597.3,-2.7,0.3569
59731,597.31,-2.69,0.1979
59732,597.32,-2.68,0.2015
59733,597.33,-2.67,0.1013
59734,597.34,-2.66,-0.0623
59735,597.35,-2.65,-0.0442
59736,597.36,-2.64,-0.0684
59737,597.37,-2.63,-0.0171
59738,597.38,-2.62,-0.0753
59739,597.39,-2.61,-0.0087
59740,597.4,-2.6,0.1884
59741,597.41,-2.59,0.2192
59742,597.42,-2.58,0.0889
59743,597.43,-2.57,0.1443
59744,597.44,-2.56,0.0279
59745,597.45,-2.55,-0.1009
59746,597.46,-2.54,0.1767
59747,597.47,-2.53,0.0884
59748,597.48,-2.52,-0.087
59749,597.49,-2.51,-0.1037
59750,597.5,-2.5,0.0464
59751,597.51,-2.49,0.1638
59752,597.52,-2.48,0.0683
59753,597.53,-2.47,-0.097
59754,597.54,-2.46,-0.0519
59755,597.55,-2.45,-0.1419
59756,597.56,-2.44,-0.1302
59757,597.57,-2.43,0.134
59758,597.58,-2.42,0.0303
59759,597.59,-2.41,0.0153
59760,597.6,-2.4,0.2426
59761,597.61,-2.39,1.3316
59762,597.62,-2.38,3.8779
59763,597.63,-2.37,4.8826
59764,597.64,-2.36,0.9048
59765,597.65,-2.35,-0.9036
59766,597.66,-2.34,0.0723
59767,597.67,-2.33,-0.0153
59768,597.68,-2.32,-0.0428
59769,597.69,-2.31,-0.2147
59770,597.7,-2.3,-0.1921
59771,597.71,-2.29,-0.1197
59772,597.72,-2.28,-0.0721
59773,597.73,-2.27,-0.0749
59774,597.74,-2.26,-0.0542
59775,597.75,-2.25,-0.1905
59776,597.76,-2.24,-0.1926
59777,597.77,-2.23,-0.2814
59778,597.78,-2.22,-0.2646
59779,597.79,-2.21,-0.2835
59780,597.8,-2.2,-0.2715
59781,597.81,-2.19,-0.292
59782,597.82,-2.18,-0.3073
59783,597.83,-2.17,-0.2938
59784,597.84,-2.16,-0.1164
59785,597.85,-2.15,0.0233
59786,597.86,-2.14,0.2432
59787,597.87,-2.13,0.3067
59788,597.88,-2.12,0.4631
59789,597.89,-2.11,0.543
59790,597.9,-2.1,0.4714
59791,597.91,-2.09,0.3304
59792,597.92,-2.08,0.1824
59793,597.93,-2.07,0.0463
59794,597.94,-2.06,-0.0808
59795,597.95,-2.05,0.1622
59796,597.96,-2.04,0.1239
59797,597.97,-2.03,-0.0401
59798,597.98,-2.02,0.0212
59799,597.99,-2.01,0.0355
59800,598,-2,-0.0051
59801,598.01,-1.99,0.021
59802,598.02,-1.98,-0.0513
59803,598.03,-1.97,-0.0078
59804,598.04,-1.96,0.1042
59805,598.05,-1.95,0.3689
59806,598.06,-1.94,0.2608
59807,598.07,-1.93,0.1769
59808,598.08,-1.92,0.1902
59809,598.09,-1.91,0.2046
59810,598.1,-1.9,0.3077
59811,598.11,-1.89,0.4055
59812,598.12,-1.88,0.0659
59813,598.13,-1.87,-0.0977
59814,598.14,-1.86,0.0274
59815,598.15,-1.85,0.0974
59816,598.16,-1.84,0.0337
59817,598.17,-1.83,0.1084
59818,598.18,-1.82,0.0644
59819,598.19,-1.81,0.5926
59820,598.2,-1.8,2.1585
59821,598.21,-1.79,4.1904
59822,598.22,-1.78,2.883
59823,598.23,-1.77,-0.9379
59824,598.24,-1.76,-0.8467
59825,598.25,-1.75,-0.3362
59826,598.26,-1.74,-0.3346
59827,598.27,-1.73,-0.2572
59828,598.28,-1.72,-0.4649
59829,598.29,-1.71,-0.6001
59830,598.3,-1.7,-0.3682
59831,598.31,-1.69,-0.2741
59832,598.32,-1.68,-0.4465
59833,598.33,-1.67,-0.4099
59834,598.34,-1.66,-0.281
59835,598.35,-1.65,-0.4384
59836,598.36,-1.64,-0.0327
59837,598.37,-1.63,-0.2017
59838,598.38,-1.62,-0.3844
59839,598.39,-1.61,-0.2698
59840,598.4,-1.6,-0.3118
59841,598.41,-1.59,-0.294
59842,598.42,-1.58,-0.2294
59843,598.43,-1.57,0.1086
59844,598.44,-1.56,0.2391
59845,598.45,-1.55,0.2007
59846,598.46,-1.54,0.5204
59847,598.47,-1.53,0.6004
59848,598.48,-1.52,0.5156
59849,598.49,-1.51,0.484
59850,598.5,-1.5,0.2364
59851,598.51,-1.49,0.0852
59852,598.52,-1.48,0.0077
59853,598.53,-1.47,0.105
59854,598.54,-1.46,0.0871
59855,598.55,-1.45,-0.1016
59856,598.56,-1.44,-0.0749
59857,598.57,-1.43,-0.0132
59858,598.58,-1.42,-0.0474
59859,598.59,-1.41,-0.0144
59860,598.6,-1.4,-0.2577
59861,598.61,-1.39,-0.0276
59862,598.62,-1.38,-0.0396
59863,598.63,-1.37,-0.0718
59864,598.64,-1.36,0.2011
59865,598.65,-1.35,-0.0018
59866,598.66,-1.34,0.2602
59867,598.67,-1.33,0.1901
59868,598.68,-1.32,0.2372
59869,598.69,-1.31,0.481
59870,598.7,-1.3,0.496
59871,598.71,-1.29,0.1884
59872,598.72,-1.28,0.1483
59873,598.73,-1.27,0.0787
59874,598.74,-1.26,0.0745
59875,598.75,-1.25,0.0386
59876,598.76,-1.24,-0.0403
59877,598.77,-1.23,-0.0351
59878,598.78,-1.22,-0.0578
59879,598.79,-1.21,0.9923
59880,598.8,-1.2,2.9634
59881,598.81,-1.19,4.4808
59882,598.82,-1.18,1.074
59883,598.83,-1.17,-1.4522
59884,598.84,-1.16,-0.6001
59885,598.85,-1.15,-0.6496
59886,598.86,-1.14,-0.5855
59887,598.87,-1.13,-0.499
59888,598.88,-1.12,-0.5737
59889,598.89,-1.11,-0.4689
59890,598.9,-1.1,-0.3232
59891,598.91,-1.09,-0.5539
59892,598.92,-1.08,-0.4145
59893,598.93,-1.07,-0.466
59894,598.94,-1.06,-0.4172
59895,598.95,-1.05,-0.4674
59896,598.96,-1.04,-0.3209
59897,598.97,-1.03,-0.3622
59898,598.98,-1.02,-0.4906
59899,598.99,-1.01,-0.3246
59900,599,-1,-0.402
59901,599.01,-0.99,-0.3088
59902,599.02,-0.98,-0.1424
59903,599.03,-0.97,0.1065
59904,599.04,-0.96,0.4228
59905,599.05,-0.95,0.4311
59906,599.06,-0.94,0.5661
59907,599.07,-0.93,0.8477
59908,599.08,-0.92,0.7598
59909,599.09,-0.91,0.5015
59910,599.1,-0.9,0.4608
59911,599.11,-0.89,0.4617
59912,599.12,-0.88,0.3033
59913,599.13,-0.87,0.2634
59914,599.14,-0.86,0.051
59915,599.15,-0.85,0.1921
59916,599.16,-0.84,0.0921
59917,599.17,-0.83,0.0559
59918,599.18,-0.82,0.0257
59919,599.19,-0.81,0.2827
59920,599.2,-0.8,0.3811
59921,599.21,-0.79,-0.0425
59922,599.22,-0.78,0.0563
59923,599.23,-0.77,0.1943
59924,599.24,-0.76,0.2427
59925,599.25,-0.75,-0.0661
59926,599.26,-0.74,0.3216
59927,599.27,-0.73,0.3038
59928,599.28,-0.72,0.0513
59929,599.29,-0.71,0.0904
59930,599.3,-0.7,0.157
59931,599.31,-0.69,-0.041
59932,599.32,-0.68,-0.151
59933,599.33,-0.67,-0.2241
59934,599.34,-0.66,-0.2922
59935,599.35,-0.65,-0.4779
59936,599.36,-0.64,-0.2927
59937,599.37,-0.63,-0.1221
59938,599.38,-0.62,-0.2099
59939,599.39,-0.61,-0.1612
59940,599.4,-0.6,1.8573
59941,599.41,-0.59,4.2588
59942,599.42,-0.58,2.6895
59943,599.43,-0.57,-0.5339
59944,599.44,-0.56,-1.0634
59945,599.45,-0.55,-0.7636
59946,599.46,-0.54,0.0849
59947,599.47,-0.53,-0.0406
59948,599.48,-0.52,-0.7092
59949,599.49,-0.51,-0.9836
59950,599.5,-0.5,-0.0771
59951,599.51,-0.49,-0.7405
59952,599.52,-0.48,-0.4702
59953,599.53,-0.47,-0.0127
59954,599.54,-0.46,-0.3752
59955,599.55,-0.45,-0.3131
59956,599.56,-0.44,-0.69
59957,599.57,-0.43,-0.4775
59958,599.58,-0.42,-0.635
59959,599.59,-0.41,-0.4232
59960,599.6,-0.4,-0.4036
59961,599.61,-0.39,-0.3072
59962,599.62,-0.38,-0.4538
59963,599.63,-0.37,-0.1741
59964,599.64,-0.36,-0.148
59965,599.65,-0.35,0.1432
59966,599.66,-0.34,0.1409
59967,599.67,-0.33,0.3922
59968,599.68,-0.32,0.6743
59969,599.69,-0.31,0.2555
59970,599.7,-0.3,0.2294
59971,599.71,-0.29,0.1057
59972,599.72,-0.28,0.14
59973,599.73,-0.27,-0.0324
59974,599.74,-0.26,0.0338
59975,599.75,-0.25,0.0858
59976,599.76,-0.24,-0.0619
59977,599.77,-0.23,0.1647
59978,599.78,-0.22,0.1663
59979,599.79,-0.21,-0.0194
59980,599.8,-0.2,-0.0237
59981,599.81,-0.19,-0.0722
59982,599.82,-0.18,-0.0836
59983,599.83,-0.17,-0.0749
59984,599.84,-0.16,0.0965
59985,599.85,-0.15,0.0856
59986,599.86,-0.14,0.0101
59987,599.87,-0.13,-0.0255
59988,599.88,-0.12,0.0508
59989,599.89,-0.11,0.073
59990,599.9,-0.1,0.0637
59991,599.91,-0.09,0.0452
59992,599.92,-0.08,-0.1578
59993,599.93,-0.07,-0.2403
59994,599.94,-0.06,-0.0542
59995,599.95,-0.05,-0.0365
59996,599.96,-0.04,-0.1064
59997,599.97,-0.03,0.0722
59998,599.98,-0.02,1.0509
59999,599.99,-0.01,2.8448
60000,600,0,4.4887
60001,600.01,0.01,1.2428
60002,600.02,0.02,-1.3086
60003,600.03,0.03,-0.2635
60004,600.04,0.04,-0.2567
60005,600.05,0.05,-0.0602
60006,600.06,0.06,-0.0829
60007,600.07,0.07,0.0161
60008,600.08,0.08,0.0509
60009,600.09,0.09,0.0498
60010,600.1,0.1,0.0427
60011,600.11,0.11,0.0301
60012,600.12,0.12,-0.1902
60013,600.13,0.13,0.0289
60014,600.14,0.14,0.0162
60015,600.15,0.15,-0.1908
60016,600.16,0.16,-0.1811
60017,600.17,0.17,-0.0161
60018,600.18,0.18,0.0077
60019,600.19,0.19,-0.1016
60020,600.2,0.2,0.0042
60021,600.21,0.21,0.1694
60022,600.22,0.22,0.2232
60023,600.23,0.23,0.3067
60024,600.24,0.24,0.4196
60025,600.25,0.25,0.6708
60026,600.26,0.26,0.5035
60027,600.27,0.27,0.3049
60028,600.28,0.28,0.4071
60029,600.29,0.29,0.2017
60030,600.3,0.3,0.1054
60031,600.31,0.31,0.1667
60032,600.32,0.32,-0.2185
60033,600.33,0.33,0.0043
60034,600.34,0.34,-0.315
60035,600.35,0.35,-0.337
60036,600.36,0.36,0.3591
60037,600.37,0.37,-0.2572
60038,600.38,0.38,-0.2715
60039,600.39,0.39,-0.0591
60040,600.4,0.4,-0.238
60041,600.41,0.41,-0.0234
60042,600.42,0.42,-0.032
60043,600.43,0.43,-0.0315
60044,600.44,0.44,0.0591
60045,600.45,0.45,0.4445
60046,600.46,0.46,-0.0363
60047,600.47,0.47,0.3638
60048,600.48,0.48,0.09
60049,600.49,0.49,-0.0439
60050,600.5,0.5,0.4096
60051,600.51,0.51,0.0006
60052,600.52,0.52,-0.187
60053,600.53,0.53,0.0995
60054,600.54,0.54,0.2054
60055,600.55,0.55,-0.1136
60056,600.56,0.56,0.0515
60057,600.57,0.57,0.1896
60058,600.58,0.58,1.2357
60059,600.59,0.59,3.6743
60060,600.6,0.6,4.0361
60061,600.61,0.61,0.1654
60062,600.62,0.62,-1.0415
60063,600.63,0.63,-0.3776
60064,600.64,0.64,-0.2926
60065,600.65,0.65,-0.3681
60066,600.66,0.66,-0.1922
60067,600.67,0.67,-0.3264
60068,600.68,0.68,-0.3407
60069,600.69,0.69,-0.3013
60070,600.7,0.7,-0.3396
60071,600.71,0.71,-0.2886
60072,600.72,0.72,-0.4263
60073,600.73,0.73,-0.3859
60074,600.74,0.74,-0.4099
60075,600.75,0.75,-0.3097
60076,600.76,0.76,-0.0884
60077,600.77,0.77,-0.5188
60078,600.78,0.78,-0.4864
60079,600.79,0.79,-0.2768
60080,600.8,0.8,-0.3631
60081,600.81,0.81,-0.2829
60082,600.82,0.82,-0.1372
60083,600.83,0.83,0.0369
60084,600.84,0.84,0.1686
60085,600.85,0.85,0.2989
60086,600.86,0.86,0.4977
60087,600.87,0.87,-0.0397
60088,600.88,0.88,0.0093
60089,600.89,0.89,-0.0511
60090,600.9,0.9,-0.2527
60091,600.91,0.91,-0.0387
60092,600.92,0.92,-0.0274
60093,600.93,0.93,0.283
60094,600.94,0.94,0.0454
60095,600.95,0.95,0.109
60096,600.96,0.96,-0.0087
60097,600.97,0.97,-0.0752
60098,600.98,0.98,0.1602
60099,600.99,0.99,0.0944
60100,601,1,0.0289
60101,601.01,1.01,0.4669
60102,601.02,1.02,0.4732
60103,601.03,1.03,0.2263
60104,601.04,1.04,0.3933
60105,601.05,1.05,-0.003
60106,601.06,1.06,0.8467
60107,601.07,1.07,0.5245
60108,601.08,1.08,0.5556
60109,601.09,1.09,0.7828
60110,601.1,1.1,0.0351
60111,601.11,1.11,-0.0606
60112,601.12,1.12,0.5163
60113,601.13,1.13,0.4791
60114,601.14,1.14,-0.2874
60115,601.15,1.15,0.066
60116,601.16,1.16,0.8294
60117,601.17,1.17,1.9262
60118,601.18,1.18,4.0388
60119,601.19,1.19,4.3752
60120,601.2,1.2,-0.0032
60121,601.21,1.21,-0.9227
60122,601.22,1.22,-0.279
60123,601.23,1.23,0.0506
60124,601.24,1.24,0.0924
60125,601.25,1.25,-0.3193
60126,601.26,1.26,-0.1189
60127,601.27,1.27,-0.316
60128,601.28,1.28,-0.7558
60129,601.29,1.29,-0.0658
60130,601.3,1.3,-0.0857
60131,601.31,1.31,-0.4364
60132,601.32,1.32,-0.0868
60133,601.33,1.33,-0.4631
60134,601.34,1.34,-0.8998
60135,601.35,1.35,-0.063
60136,601.36,1.36,-0.3809
60137,601.37,1.37,-0.3781
60138,601.38,1.38,0.0975
60139,601.39,1.39,-0.2159
60140,601.4,1.4,-0.2081
60141,601.41,1.41,0.1461
60142,601.42,1.42,0.1546
60143,601.43,1.43,-0.1844
60144,601.44,1.44,0.1408
60145,601.45,1.45,0.422
60146,601.46,1.46,-0.1869
60147,601.47,1.47,-0.1903
60148,601.48,1.48,0.1661
60149,601.49,1.49,-0.3114
60150,601.5,1.5,-0.2935
60151,601.51,1.51,-0.3477
60152,601.52,1.52,-0.4286
60153,601.53,1.53,-0.086
60154,601.54,1.54,0.6751
60155,601.55,1.55,0.4064
60156,601.56,1.56,0.1294
60157,601.57,1.57,-0.0039
60158,601.58,1.58,0.2518
60159,601.59,1.59,0.0218
60160,601.6,1.6,0.4139
60161,601.61,1.61,0.3636
60162,601.62,1.62,0.269
60163,601.63,1.63,0.8087
60164,601.64,1.64,0.3645
60165,601.65,1.65,0.2391
60166,601.66,1.66,0.3487
60167,601.67,1.67,0.2917
60168,601.68,1.68,0.2875
60169,601.69,1.69,0.5407
60170,601.7,1.7,0.4495
60171,601.71,1.71,0.3927
60172,601.72,1.72,-0.2171
60173,601.73,1.73,0.231
60174,601.74,1.74,0.0251
60175,601.75,1.75,-0.1974
60176,601.76,1.76,1.207
60177,601.77,1.77,2.5527
60178,601.78,1.78,4.6623
60179,601.79,1.79,3.2581
60180,601.8,1.8,-0.8981
60181,601.81,1.81,-0.914
60182,601.82,1.82,-0.3319
60183,601.83,1.83,-0.3886
60184,601.84,1.84,-0.5058
60185,601.85,1.85,-0.594
60186,601.86,1.86,-0.4988
60187,601.87,1.87,-0.9173
60188,601.88,1.88,-0.8881
60189,601.89,1.89,-0.8252
60190,601.9,1.9,-1.1914
60191,601.91,1.91,-1.2944
60192,601.92,1.92,-0.9006
60193,601.93,1.93,-1.1302
60194,601.94,1.94,-1.1474
60195,601.95,1.95,-0.7929
60196,601.96,1.96,-1.2064
60197,601.97,1.97,-1.3867
60198,601.98,1.98,-0.9549
60199,601.99,1.99,-0.9623
60200,602,2,-1.0547
60201,602.01,2.01,-0.284
60202,602.02,2.02,0.0373
60203,602.03,2.03,-0.2153
60204,602.04,2.04,0.2826
60205,602.05,2.05,0.1713
60206,602.06,2.06,0.1296
60207,602.07,2.07,0.3165
60208,602.08,2.08,0.2112
60209,602.09,2.09,0.0471
60210,602.1,2.1,0.2166
60211,602.11,2.11,-0.0569
60212,602.12,2.12,0.0412
60213,602.13,2.13,0.2949
60214,602.14,2.14,0.1918
60215,602.15,2.15,-0.0052
60216,602.16,2.16,0.0581
60217,602.17,2.17,0.1435
60218,602.18,2.18,0.1458
60219,602.19,2.19,-0.0573
60220,602.2,2.2,0.0275
60221,602.21,2.21,-0.025
60222,602.22,2.22,0.0262
60223,602.23,2.23,0.0396
60224,602.24,2.24,0.0669
60225,602.25,2.25,0.0937
60226,602.26,2.26,0.1361
60227,602.27,2.27,0.142
60228,602.28,2.28,0.0869
60229,602.29,2.29,0.1122
60230,602.3,2.3,-0.0041
60231,602.31,2.31,-0.0788
60232,602.32,2.32,-0.0585
60233,602.33,2.33,-0.1146
60234,602.34,2.34,-0.1009
60235,602.35,2.35,-0.0126
60236,602.36,2.36,0.5967
60237,602.37,2.37,2.336
60238,602.38,2.38,4.5754
60239,602.39,2.39,2.9797
60240,602.4,2.4,-0.8536
60241,602.41,2.41,-0.7365
60242,602.42,2.42,-0.0328
60243,602.43,2.43,0.0358
60244,602.44,2.44,-0.0265
60245,602.45,2.45,0.0632
60246,602.46,2.46,-0.0261
60247,602.47,2.47,-0.1038
60248,602.48,2.48,-0.069
60249,602.49,2.49,0.0153
60250,602.5,2.5,-0.1854
60251,602.51,2.51,-0.0712
60252,602.52,2.52,-0.0711
60253,602.53,2.53,-0.4439
60254,602.54,2.54,-0.27
60255,602.55,2.55,-0.4881
60256,602.56,2.56,-0.6605
60257,602.57,2.57,-0.0368
60258,602.58,2.58,-0.2952
60259,602.59,2.59,-0.5939
60260,602.6,2.6,0.104
60261,602.61,2.61,0.1007
60262,602.62,2.62,0.1269
60263,602.63,2.63,0.6445
60264,602.64,2.64,0.4541
60265,602.65,2.65,0.5174
60266,602.66,2.66,0.296
60267,602.67,2.67,0.3668
60268,602.68,2.68,0.1141
60269,602.69,2.69,0.0623
60270,602.7,2.7,0.2839
60271,602.71,2.71,0.0365
60272,602.72,2.72,-0.1152
60273,602.73,2.73,-0.2607
60274,602.74,2.74,-0.1064
60275,602.75,2.75,0.0666
60276,602.76,2.76,-0.0396
60277,602.77,2.77,-0.0712
60278,602.78,2.78,-0.0734
60279,602.79,2.79,-0.1305
60280,602.8,2.8,-0.0405
60281,602.81,2.81,0.073
60282,602.82,2.82,0.1032
60283,602.83,2.83,0.0708
60284,602.84,2.84,0.1545
60285,602.85,2.85,0.208
60286,602.86,2.86,0.1458
60287,602.87,2.87,0.2016
60288,602.88,2.88,0.0515
60289,602.89,2.89,0.1068
60290,602.9,2.9,0.1189
60291,602.91,2.91,0.0001
60292,602.92,2.92,-0.0305
60293,602.93,2.93,0.0126
60294,602.94,2.94,0.0585
60295,602.95,2.95,-0.001
60296,602.96,2.96,0.6487
60297,602.97,2.97,2.4567
60298,602.98,2.98,4.6051
60299,602.99,2.99,2.3382
60300,603,3,-1.072
60301,603.01,3.01,-0.6652
60302,603.02,3.02,-0.2995
60303,603.03,3.03,-0.256
60304,603.04,3.04,-0.2351
60305,603.05,3.05,-0.2834
60306,603.06,3.06,-0.2928
60307,603.07,3.07,-0.2367
60308,603.08,3.08,-0.3101
60309,603.09,3.09,-0.286
60310,603.1,3.1,-0.2582
60311,603.11,3.11,-0.3686
60312,603.12,3.12,-0.2022
60313,603.13,3.13,-0.2743
60314,603.14,3.14,-0.2295
60315,603.15,3.15,-0.2466
60316,603.16,3.16,-0.2412
60317,603.17,3.17,-0.2404
60318,603.18,3.18,-0.2199
60319,603.19,3.19,-0.1449
60320,603.2,3.2,0.076
60321,603.21,3.21,0.3358
60322,603.22,3.22,0.3246
60323,603.23,3.23,0.531
60324,603.24,3.24,0.6241
60325,603.25,3.25,0.6053
60326,603.26,3.26,0.4794
60327,603.27,3.27,0.42
60328,603.28,3.28,0.3184
60329,603.29,3.29,0.2859
60330,603.3,3.3,0.1811
60331,603.31,3.31,0.1149
60332,603.32,3.32,-0.0346
60333,603.33,3.33,0.4331
60334,603.34,3.34,0.411
60335,603.35,3.35,-0.0021
60336,603.36,3.36,0.1601
60337,603.37,3.37,-0.1351
60338,603.38,3.38,0.0451
60339,603.39,3.39,0.5597
60340,603.4,3.4,-0.0373
60341,603.41,3.41,-0.0832
60342,603.42,3.42,0.0365
60343,603.43,3.43,0.0757
60344,603.44,3.44,0.0414
60345,603.45,3.45,-0.0702
60346,603.46,3.46,0.1622
60347,603.47,3.47,0.0993
60348,603.48,3.48,-0.3784
60349,603.49,3.49,-0.12
60350,603.5,3.5,0.1357
60351,603.51,3.51,-0.2269
60352,603.52,3.52,-0.1979
60353,603.53,3.53,-0.3787
60354,603.54,3.54,0.6383
60355,603.55,3.55,2.1582
60356,603.56,3.56,4.4347
60357,603.57,3.57,2.5774
60358,603.58,3.58,-1.2753
60359,603.59,3.59,-0.7229
60360,603.6,3.6,-0.2389
60361,603.61,3.61,-0.2802
60362,603.62,3.62,-0.6211
60363,603.63,3.63,-0.0309
60364,603.64,3.64,-0.079
60365,603.65,3.65,-0.3517
60366,603.66,3.66,-0.2246
60367,603.67,3.67,-0.0177
60368,603.68,3.68,-0.2578
60369,603.69,3.69,-0.099
60370,603.7,3.7,-0.2185
60371,603.71,3.71,-0.1497
60372,603.72,3.72,-0.1779
60373,603.73,3.73,-0.117
60374,603.74,3.74,-0.098
60375,603.75,3.75,-0.0293
60376,603.76,3.76,0.056
60377,603.77,3.77,-0.2483
60378,603.78,3.78,0.2665
60379,603.79,3.79,0.3459
60380,603.8,3.8,0.3385
60381,603.81,3.81,0.4469
60382,603.82,3.82,0.3694
60383,603.83,3.83,0.2515
60384,603.84,3.84,0.1194
60385,603.85,3.85,-0.0809
60386,603.86,3.86,-0.1638
60387,603.87,3.87,-0.4278
60388,603.88,3.88,-0.3944
60389,603.89,3.89,-0.4834
60390,603.9,3.9,-0.4221
60391,603.91,3.91,-0.4147
60392,603.92,3.92,-0.5953
60393,603.93,3.93,-0.489
60394,603.94,3.94,-0.5743
60395,603.95,3.95,-0.5369
60396,603.96,3.96,-0.5125
60397,603.97,3.97,-0.4878
60398,603.98,3.98,-0.448
60399,603.99,3.99,-0.4596
60400,604,4,-0.4276
60401,604.01,4.01,-0.1017
60402,604.02,4.02,-0.2567
60403,604.03,4.03,0.0586
60404,604.04,4.04,0.2459
60405,604.05,4.05,-0.1854
60406,604.06,4.06,-0.0609
60407,604.07,4.07,0.0537
60408,604.08,4.08,-0.0983
60409,604.09,4.09,0.0247
60410,604.1,4.1,0.0764
60411,604.11,4.11,0.0399
60412,604.12,4.12,0.2587
60413,604.13,4.13,0.8594
60414,604.14,4.14,2.4308
60415,604.15,4.15,4.5102
60416,604.16,4.16,3.1029
60417,604.17,4.17,-0.676
60418,604.18,4.18,-0.4174
60419,604.19,4.19,0.1038
60420,604.2,4.2,0.0228
60421,604.21,4.21,0.0451
60422,604.22,4.22,0.1963
60423,604.23,4.23,-0.1997
60424,604.24,4.24,-0.1595
60425,604.25,4.25,0.0112
60426,604.26,4.26,-0.0762
60427,604.27,4.27,-0.2359
60428,604.28,4.28,-0.124
60429,604.29,4.29,-0.1979
60430,604.3,4.3,-0.2565
60431,604.31,4.31,-0.3204
60432,604.32,4.32,-0.2421
60433,604.33,4.33,-0.2774
60434,604.34,4.34,-0.3365
60435,604.35,4.35,-0.1365
60436,604.36,4.36,-0.2905
60437,604.37,4.37,0.0561
60438,604.38,4.38,0.1103
60439,604.39,4.39,0.294
60440,604.4,4.4,0.344
60441,604.41,4.41,0.5628
60442,604.42,4.42,0.7643
60443,604.43,4.43,0.5036
60444,604.44,4.44,0.5139
60445,604.45,4.45,0.2129
60446,604.46,4.46,0.0823
60447,604.47,4.47,-0.1871
60448,604.48,4.48,0.0895
60449,604.49,4.49,0.0619
60450,604.5,4.5,0.0932
60451,604.51,4.51,-0.0114
60452,604.52,4.52,0.0386
60453,604.53,4.53,-0.0096
60454,604.54,4.54,0.0743
60455,604.55,4.55,-0.0154
60456,604.56,4.56,-0.0734
60457,604.57,4.57,0.1948
60458,604.58,4.58,-0.034
60459,604.59,4.59,-0.022
60460,604.6,4.6,0.2014
60461,604.61,4.61,0.4357
60462,604.62,4.62,0.4476
60463,604.63,4.63,0.2601
60464,604.64,4.64,0.1011
60465,604.65,4.65,0.1193
60466,604.66,4.66,0.1143
60467,604.67,4.67,0.2419
60468,604.68,4.68,0.0744
60469,604.69,4.69,-0.2582
60470,604.7,4.7,-0.0349
60471,604.71,4.71,-0.0159
60472,604.72,4.72,-0.0055
60473,604.73,4.73,0.3523
60474,604.74,4.74,1.4897
60475,604.75,4.75,4
60476,604.76,4.76,4.4329
60477,604.77,4.77,-0.1553
60478,604.78,4.78,-1.238
60479,604.79,4.79,-0.3884
60480,604.8,4.8,-0.4347
60481,604.81,4.81,-0.4059
60482,604.82,4.82,-0.5022
60483,604.83,4.83,-0.4016
60484,604.84,4.84,-0.4919
60485,604.85,4.85,-0.5184
60486,604.86,4.86,-0.229
60487,604.87,4.87,-0.4825
60488,604.88,4.88,-0.5381
60489,604.89,4.89,-0.2507
60490,604.9,4.9,-0.3785
60491,604.91,4.91,-0.4019
60492,604.92,4.92,-0.3052
60493,604.93,4.93,-0.4225
60494,604.94,4.94,-0.3642
60495,604.95,4.95,-0.3106
60496,604.96,4.96,-0.3538
60497,604.97,4.97,-0.551
60498,604.98,4.98,-0.3091
60499,604.99,4.99,0.1599
