sample_idx,t_s,t_rel_peak_s,ecg_mv
0,0,-600,-0.0247
1,0.01,-599.99,-0.0329
2,0.02,-599.98,-0.0481
3,0.03,-599.97,-0.0391
4,0.04,-599.96,-0.0362
5,0.05,-599.95,-0.03
6,0.06,-599.94,-0.0148
7,0.07,-599.93,-0.0248
8,0.08,-599.92,-0.0142
9,0.09,-599.91,-0.0119
10,0.1,-599.9,-0.0314
11,0.11,-599.89,-0.0057
12,0.12,-599.88,0.0068
13,0.13,-599.87,0.0234
14,0.14,-599.86,0.0774
15,0.15,-599.85,0.119
16,0.16,-599.84,0.1262
17,0.17,-599.83,0.1425
18,0.18,-599.82,0.121
19,0.19,-599.81,0.1139
20,0.2,-599.8,0.1084
21,0.21,-599.79,0.0791
22,0.22,-599.78,0.0526
23,0.23,-599.77,0.0439
24,0.24,-599.76,0.046
25,0.25,-599.75,0.0407
26,0.26,-599.74,0.0564
27,0.27,-599.73,0.0612
28,0.28,-599.72,0.0362
29,0.29,-599.71,0.0421
30,0.3,-599.7,0.0199
31,0.31,-599.69,0.0355
32,0.32,-599.68,0.0516
33,0.33,-599.67,0.0294
34,0.34,-599.66,0.0369
35,0.35,-599.65,0.0101
36,0.36,-599.64,-0.0065
37,0.37,-599.63,-0.0111
38,0.38,-599.62,0.0095
39,0.39,-599.61,-0.0243
40,0.4,-599.6,-0.0435
41,0.41,-599.59,-0.0202
42,0.42,-599.58,-0.0261
43,0.43,-599.57,-0.0193
44,0.44,-599.56,-0.0493
45,0.45,-599.55,-0.0487
46,0.46,-599.54,-0.033
47,0.47,-599.53,-0.049
48,0.48,-599.52,-0.0046
49,0.49,-599.51,0.023
50,0.5,-599.5,0.0503
51,0.51,-599.49,0.0649
52,0.52,-599.48,0.0991
53,0.53,-599.47,0.0751
54,0.54,-599.46,0.054
55,0.55,-599.45,0.0498
56,0.56,-599.44,0.0282
57,0.57,-599.43,-0.0257
58,0.58,-599.42,-0.0407
59,0.59,-599.41,-0.0495
60,0.6,-599.4,-0.0312
61,0.61,-599.39,-0.0276
62,0.62,-599.38,-0.0243
63,0.63,-599.37,-0.024
64,0.64,-599.36,0.0375
65,0.65,-599.35,0.6375
66,0.66,-599.34,1.6348
67,0.67,-599.33,1.2747
68,0.68,-599.32,-0.2445
69,0.69,-599.31,-0.6991
70,0.7,-599.3,-0.491
71,0.71,-599.29,-0.2954
72,0.72,-599.28,-0.1622
73,0.73,-599.27,-0.092
74,0.74,-599.26,-0.0531
75,0.75,-599.25,-0.0646
76,0.76,-599.24,-0.0569
77,0.77,-599.23,-0.0606
78,0.78,-599.22,-0.0586
79,0.79,-599.21,-0.0608
80,0.8,-599.2,-0.0632
81,0.81,-599.19,-0.0638
82,0.82,-599.18,-0.0677
83,0.83,-599.17,-0.0652
84,0.84,-599.16,-0.0771
85,0.85,-599.15,-0.0839
86,0.86,-599.14,-0.0689
87,0.87,-599.13,-0.0789
88,0.88,-599.12,-0.0704
89,0.89,-599.11,-0.0586
90,0.9,-599.1,-0.0619
91,0.91,-599.09,-0.0824
92,0.92,-599.08,-0.0881
93,0.93,-599.07,-0.0897
94,0.94,-599.06,-0.0931
95,0.95,-599.05,-0.0779
96,0.96,-599.04,-0.0476
97,0.97,-599.03,-0.003
98,0.98,-599.02,0.0613
99,0.99,-599.01,0.096
100,1,-599,0.0888
101,1.01,-598.99,0.0911
102,1.02,-598.98,0.0706
103,1.03,-598.97,0.077
104,1.04,-598.96,0.0598
105,1.05,-598.95,0.0553
106,1.06,-598.94,0.0527
107,1.07,-598.93,0.0491
108,1.08,-598.92,0.0465
109,1.09,-598.91,0.0449
110,1.1,-598.9,0.0432
111,1.11,-598.89,0.0425
112,1.12,-598.88,0.0392
113,1.13,-598.87,0.0405
114,1.14,-598.86,0.0224
115,1.15,-598.85,0.0136
116,1.16,-598.84,0.0154
117,1.17,-598.83,0.013
118,1.18,-598.82,0.014
119,1.19,-598.81,-0.0052
120,1.2,-598.8,-0.0083
121,1.21,-598.79,-0.0053
122,1.22,-598.78,-0.0195
123,1.23,-598.77,-0.0292
124,1.24,-598.76,-0.0204
125,1.25,-598.75,-0.037
126,1.26,-598.74,-0.0295
127,1.27,-598.73,-0.0215
128,1.28,-598.72,-0.0383
129,1.29,-598.71,-0.0062
130,1.3,-598.7,0.0162
131,1.31,-598.69,0.0471
132,1.32,-598.68,0.065
133,1.33,-598.67,0.0769
134,1.34,-598.66,0.0943
135,1.35,-598.65,0.07
136,1.36,-598.64,0.0557
137,1.37,-598.63,0.0406
138,1.38,-598.62,-0.0168
139,1.39,-598.61,-0.0523
140,1.4,-598.6,-0.0466
141,1.41,-598.59,-0.0472
142,1.42,-598.58,-0.0303
143,1.43,-598.57,-0.0325
144,1.44,-598.56,-0.0315
145,1.45,-598.55,-0.0544
146,1.46,-598.54,0.1686
147,1.47,-598.53,1.0809
148,1.48,-598.52,1.8286
149,1.49,-598.51,0.8228
150,1.5,-598.5,-0.5862
151,1.51,-598.49,-0.6954
152,1.52,-598.48,-0.3666
153,1.53,-598.47,-0.17
154,1.54,-598.46,-0.0905
155,1.55,-598.45,-0.0748
156,1.56,-598.44,-0.0734
157,1.57,-598.43,-0.0539
158,1.58,-598.42,-0.0591
159,1.59,-598.41,-0.073
160,1.6,-598.4,-0.0589
161,1.61,-598.39,-0.0588
162,1.62,-598.38,-0.06
163,1.63,-598.37,-0.0612
164,1.64,-598.36,-0.061
165,1.65,-598.35,-0.0641
166,1.66,-598.34,-0.0495
167,1.67,-598.33,-0.0414
168,1.68,-598.32,-0.0476
169,1.69,-598.31,-0.0357
170,1.7,-598.3,-0.0236
171,1.71,-598.29,-0.0301
172,1.72,-598.28,-0.0221
173,1.73,-598.27,-0.0081
174,1.74,-598.26,-0.0116
175,1.75,-598.25,-0.0124
176,1.76,-598.24,-0.0111
177,1.77,-598.23,0.0232
178,1.78,-598.22,0.0751
179,1.79,-598.21,0.0867
180,1.8,-598.2,0.1238
181,1.81,-598.19,0.1091
182,1.82,-598.18,0.0963
183,1.83,-598.17,0.0805
184,1.84,-598.16,0.0702
185,1.85,-598.15,0.0433
186,1.86,-598.14,0.0298
187,1.87,-598.13,0.0342
188,1.88,-598.12,0.0237
189,1.89,-598.11,0.0085
190,1.9,-598.1,0.0087
191,1.91,-598.09,0.0096
192,1.92,-598.08,0.0047
193,1.93,-598.07,0.0189
194,1.94,-598.06,0.0146
195,1.95,-598.05,0.0027
196,1.96,-598.04,0.007
197,1.97,-598.03,0.0032
198,1.98,-598.02,0.0054
199,1.99,-598.01,-0.0147
200,2,-598,-0.0166
201,2.01,-597.99,-0.0162
202,2.02,-597.98,-0.0161
203,2.03,-597.97,0.0171
204,2.04,-597.96,0.0081
205,2.05,-597.95,-0.0052
206,2.06,-597.94,-0.0153
207,2.07,-597.93,-0.013
208,2.08,-597.92,-0.0105
209,2.09,-597.91,-0.0199
210,2.1,-597.9,-0.032
211,2.11,-597.89,-0.0069
212,2.12,-597.88,0.0205
213,2.13,-597.87,0.0463
214,2.14,-597.86,0.0757
215,2.15,-597.85,0.0977
216,2.16,-597.84,0.1082
217,2.17,-597.83,0.0845
218,2.18,-597.82,0.0637
219,2.19,-597.81,0.0668
220,2.2,-597.8,-0.0015
221,2.21,-597.79,-0.0408
222,2.22,-597.78,-0.0452
223,2.23,-597.77,-0.0464
224,2.24,-597.76,-0.0556
225,2.25,-597.75,-0.0374
226,2.26,-597.74,-0.0361
227,2.27,-597.73,-0.0569
228,2.28,-597.72,0.0485
229,2.29,-597.71,0.836
230,2.3,-597.7,1.7633
231,2.31,-597.69,1.1257
232,2.32,-597.68,-0.435
233,2.33,-597.67,-0.7847
234,2.34,-597.66,-0.4081
235,2.35,-597.65,-0.1842
236,2.36,-597.64,-0.0873
237,2.37,-597.63,-0.059
238,2.38,-597.62,-0.0618
239,2.39,-597.61,-0.0615
240,2.4,-597.6,-0.0619
241,2.41,-597.59,-0.0645
242,2.42,-597.58,-0.0628
243,2.43,-597.57,-0.0687
244,2.44,-597.56,-0.0587
245,2.45,-597.55,-0.0571
246,2.46,-597.54,-0.0711
247,2.47,-597.53,-0.0705
248,2.48,-597.52,-0.0647
249,2.49,-597.51,-0.0509
250,2.5,-597.5,-0.0386
251,2.51,-597.49,-0.0312
252,2.52,-597.48,-0.0341
253,2.53,-597.47,-0.0373
254,2.54,-597.46,-0.0222
255,2.55,-597.45,-0.0189
256,2.56,-597.44,-0.0157
257,2.57,-597.43,-0.0013
258,2.58,-597.42,0.0066
259,2.59,-597.41,0.037
260,2.6,-597.4,0.0759
261,2.61,-597.39,0.1
262,2.62,-597.38,0.1221
263,2.63,-597.37,0.1447
264,2.64,-597.36,0.1167
265,2.65,-597.35,0.1014
266,2.66,-597.34,0.0871
267,2.67,-597.33,0.056
268,2.68,-597.32,0.0349
269,2.69,-597.31,0.0366
270,2.7,-597.3,0.0199
271,2.71,-597.29,0.0111
272,2.72,-597.28,0.0141
273,2.73,-597.27,0.0104
274,2.74,-597.26,0.0132
275,2.75,-597.25,0.0074
276,2.76,-597.24,0.0174
277,2.77,-597.23,0.0201
278,2.78,-597.22,0.0033
279,2.79,-597.21,0.0076
280,2.8,-597.2,0.0028
281,2.81,-597.19,0.005
282,2.82,-597.18,0.0016
283,2.83,-597.17,0.006
284,2.84,-597.16,-0.0026
285,2.85,-597.15,-0.0147
286,2.86,-597.14,-0.0267
287,2.87,-597.13,-0.0348
288,2.88,-597.12,-0.0291
289,2.89,-597.11,-0.0307
290,2.9,-597.1,-0.0254
291,2.91,-597.09,-0.0445
292,2.92,-597.08,-0.0419
293,2.93,-597.07,-0.0433
294,2.94,-597.06,-0.0101
295,2.95,-597.05,0.0456
296,2.96,-597.04,0.0512
297,2.97,-597.03,0.086
298,2.98,-597.02,0.0945
299,2.99,-597.01,0.1018
300,3,-597,0.0899
301,3.01,-596.99,0.0621
302,3.02,-596.98,0.0448
303,3.03,-596.97,-0.0332
304,3.04,-596.96,-0.0389
305,3.05,-596.95,-0.0311
306,3.06,-596.94,-0.0436
307,3.07,-596.93,-0.0338
308,3.08,-596.92,-0.0366
309,3.09,-596.91,-0.026
310,3.1,-596.9,-0.0388
311,3.11,-596.89,0.2729
312,3.12,-596.88,1.2598
313,3.13,-596.87,1.6952
314,3.14,-596.86,0.4207
315,3.15,-596.85,-0.7453
316,3.16,-596.84,-0.6362
317,3.17,-596.83,-0.3087
318,3.18,-596.82,-0.1402
319,3.19,-596.81,-0.0747
320,3.2,-596.8,-0.0455
321,3.21,-596.79,-0.0509
322,3.22,-596.78,-0.0471
323,3.23,-596.77,-0.0498
324,3.24,-596.76,-0.0508
325,3.25,-596.75,-0.0533
326,3.26,-596.74,-0.0554
327,3.27,-596.73,-0.0578
328,3.28,-596.72,-0.0597
329,3.29,-596.71,-0.0614
330,3.3,-596.7,-0.0636
331,3.31,-596.69,-0.0477
332,3.32,-596.68,-0.0452
333,3.33,-596.67,-0.0511
334,3.34,-596.66,-0.0361
335,3.35,-596.65,-0.0306
336,3.36,-596.64,-0.0357
337,3.37,-596.63,-0.0359
338,3.38,-596.62,-0.0408
339,3.39,-596.61,-0.023
340,3.4,-596.6,-0.0254
341,3.41,-596.59,-0.02
342,3.42,-596.58,0.0178
343,3.43,-596.57,0.0542
344,3.44,-596.56,0.1041
345,3.45,-596.55,0.1103
346,3.46,-596.54,0.1225
347,3.47,-596.53,0.1122
348,3.48,-596.52,0.0944
349,3.49,-596.51,0.0827
350,3.5,-596.5,0.0505
351,3.51,-596.49,0.0461
352,3.52,-596.48,0.0372
353,3.53,-596.47,0.018
354,3.54,-596.46,0.021
355,3.55,-596.45,0.0174
356,3.56,-596.44,0.023
357,3.57,-596.43,0.0418
358,3.58,-596.42,0.0198
359,3.59,-596.41,0.0322
360,3.6,-596.4,0.0336
361,3.61,-596.39,0.0339
362,3.62,-596.38,0.0173
363,3.63,-596.37,0.0252
364,3.64,-596.36,0.0105
365,3.65,-596.35,0.0104
366,3.66,-596.34,-0.0038
367,3.67,-596.33,-0.0133
368,3.68,-596.32,-0.0061
369,3.69,-596.31,-0.0197
370,3.7,-596.3,-0.0297
371,3.71,-596.29,-0.0267
372,3.72,-596.28,-0.0258
373,3.73,-596.27,-0.0258
374,3.74,-596.26,-0.0215
375,3.75,-596.25,-0.0422
376,3.76,-596.24,-0.0328
377,3.77,-596.23,-0.0184
378,3.78,-596.22,0.0118
379,3.79,-596.21,0.0338
380,3.8,-596.2,0.0477
381,3.81,-596.19,0.0603
382,3.82,-596.18,0.0931
383,3.83,-596.17,0.0764
384,3.84,-596.16,0.0384
385,3.85,-596.15,0.037
386,3.86,-596.14,-0.0057
387,3.87,-596.13,-0.0503
388,3.88,-596.12,-0.0505
389,3.89,-596.11,-0.0465
390,3.9,-596.1,-0.0446
391,3.91,-596.09,-0.0242
392,3.92,-596.08,-0.0202
393,3.93,-596.07,-0.0533
394,3.94,-596.06,0.1439
395,3.95,-596.05,1.0283
396,3.96,-596.04,1.7116
397,3.97,-596.03,0.6967
398,3.98,-596.02,-0.639
399,3.99,-596.01,-0.6935
400,4,-596,-0.3429
401,4.01,-595.99,-0.1556
402,4.02,-595.98,-0.0934
403,4.03,-595.97,-0.0453
404,4.04,-595.96,-0.0425
405,4.05,-595.95,-0.0432
406,4.06,-595.94,-0.0436
407,4.07,-595.93,-0.0454
408,4.08,-595.92,-0.0475
409,4.09,-595.91,-0.0496
410,4.1,-595.9,-0.0532
411,4.11,-595.89,-0.0544
412,4.12,-595.88,-0.0599
413,4.13,-595.87,-0.0511
414,4.14,-595.86,-0.0399
415,4.15,-595.85,-0.0485
416,4.16,-595.84,-0.0418
417,4.17,-595.83,-0.0292
418,4.18,-595.82,-0.0341
419,4.19,-595.81,-0.0357
420,4.2,-595.8,-0.0389
421,4.21,-595.79,-0.0412
422,4.22,-595.78,-0.044
423,4.23,-595.77,-0.03
424,4.24,-595.76,-0.0242
425,4.25,-595.75,-0.0045
426,4.26,-595.74,0.0323
427,4.27,-595.73,0.0976
428,4.28,-595.72,0.1246
429,4.29,-595.71,0.1356
430,4.3,-595.7,0.131
431,4.31,-595.69,0.1086
432,4.32,-595.68,0.0554
433,4.33,-595.67,0.0428
434,4.34,-595.66,0.0235
435,4.35,-595.65,0.0316
436,4.36,-595.64,0.0348
437,4.37,-595.63,0.0304
438,4.38,-595.62,0.0313
439,4.39,-595.61,0.0301
440,4.4,-595.6,0.0525
441,4.41,-595.59,0.0376
442,4.42,-595.58,0.0263
443,4.43,-595.57,0.01
444,4.44,-595.56,0.0049
445,4.45,-595.55,0.0065
446,4.46,-595.54,0.0042
447,4.47,-595.53,0.0226
448,4.48,-595.52,0.0266
449,4.49,-595.51,0.0165
450,4.5,-595.5,-0.0116
451,4.51,-595.49,-0.0161
452,4.52,-595.48,-0.0147
453,4.53,-595.47,-0.0156
454,4.54,-595.46,-0.0139
455,4.55,-595.45,-0.0148
456,4.56,-595.44,-0.0103
457,4.57,-595.43,-0.021
458,4.58,-595.42,-0.0325
459,4.59,-595.41,-0.0267
460,4.6,-595.4,-0.0286
461,4.61,-595.39,-0.0162
462,4.62,-595.38,0.0144
463,4.63,-595.37,0.039
464,4.64,-595.36,0.0711
465,4.65,-595.35,0.0859
466,4.66,-595.34,0.091
467,4.67,-595.33,0.0678
468,4.68,-595.32,0.0381
469,4.69,-595.31,0.0529
470,4.7,-595.3,0.0072
471,4.71,-595.29,-0.0344
472,4.72,-595.28,-0.0142
473,4.73,-595.27,-0.021
474,4.74,-595.26,-0.0454
475,4.75,-595.25,-0.0326
476,4.76,-595.24,-0.0184
477,4.77,-595.23,-0.0386
478,4.78,-595.22,0.173
479,4.79,-595.21,1.0465
480,4.8,-595.2,1.6733
481,4.81,-595.19,0.6282
482,4.82,-595.18,-0.6876
483,4.83,-595.17,-0.7006
484,4.84,-595.16,-0.3414
485,4.85,-595.15,-0.1691
486,4.86,-595.14,-0.1036
487,4.87,-595.13,-0.0591
488,4.88,-595.12,-0.0733
489,4.89,-595.11,-0.0735
490,4.9,-595.1,-0.0585
491,4.91,-595.09,-0.0628
492,4.92,-595.08,-0.06
493,4.93,-595.07,-0.063
494,4.94,-595.06,-0.0613
495,4.95,-595.05,-0.0652
496,4.96,-595.04,-0.0609
497,4.97,-595.03,-0.0764
498,4.98,-595.02,-0.0741
499,4.99,-595.01,-0.0621
500,5,-595,-0.0707
501,5.01,-594.99,-0.0565
502,5.02,-594.98,-0.0465
503,5.03,-594.97,-0.0498
504,5.04,-594.96,-0.0495
505,5.05,-594.95,-0.0519
506,5.06,-594.94,-0.0524
507,5.07,-594.93,-0.0377
508,5.08,-594.92,-0.03
509,5.09,-594.91,-0.009
510,5.1,-594.9,0.0299
511,5.11,-594.89,0.0633
512,5.12,-594.88,0.1033
513,5.13,-594.87,0.1206
514,5.14,-594.86,0.0996
515,5.15,-594.85,0.0918
516,5.16,-594.84,0.0661
517,5.17,-594.83,0.0474
518,5.18,-594.82,0.0494
519,5.19,-594.81,0.0274
520,5.2,-594.8,0.0235
521,5.21,-594.79,0.0229
522,5.22,-594.78,0.0204
523,5.23,-594.77,0.0221
524,5.24,-594.76,0.039
525,5.25,-594.75,0.0374
526,5.26,-594.74,0.0357
527,5.27,-594.73,0.0355
528,5.28,-594.72,0.0324
529,5.29,-594.71,0.0352
530,5.3,-594.7,0.0169
531,5.31,-594.69,0.0112
532,5.32,-594.68,0.0062
533,5.33,-594.67,-0.0125
534,5.34,-594.66,-0.0071
535,5.35,-594.65,-0.0114
536,5.36,-594.64,-0.028
537,5.37,-594.63,-0.0273
538,5.38,-594.62,-0.0262
539,5.39,-594.61,-0.0256
540,5.4,-594.6,-0.0241
541,5.41,-594.59,-0.0239
542,5.42,-594.58,-0.0212
543,5.43,-594.57,-0.0219
544,5.44,-594.56,-0.0091
545,5.45,-594.55,0.0395
546,5.46,-594.54,0.0457
547,5.47,-594.53,0.0697
548,5.48,-594.52,0.0934
549,5.49,-594.51,0.0887
550,5.5,-594.5,0.046
551,5.51,-594.49,0.0551
552,5.52,-594.48,0.0352
553,5.53,-594.47,-0.0177
554,5.54,-594.46,-0.0496
555,5.55,-594.45,-0.0494
556,5.56,-594.44,-0.0484
557,5.57,-594.43,-0.0342
558,5.58,-594.42,-0.019
559,5.59,-594.41,-0.0216
560,5.6,-594.4,0.0055
561,5.61,-594.39,0.4838
562,5.62,-594.38,1.4539
563,5.63,-594.37,1.3828
564,5.64,-594.36,-0.0896
565,5.65,-594.35,-0.7834
566,5.66,-594.34,-0.5095
567,5.67,-594.33,-0.2433
568,5.68,-594.32,-0.1206
569,5.69,-594.31,-0.0638
570,5.7,-594.3,-0.0364
571,5.71,-594.29,-0.0448
572,5.72,-594.28,-0.0378
573,5.73,-594.27,-0.0423
574,5.74,-594.26,-0.0397
575,5.75,-594.25,-0.0447
576,5.76,-594.24,-0.0374
577,5.77,-594.23,-0.0243
578,5.78,-594.22,-0.026
579,5.79,-594.21,-0.0474
580,5.8,-594.2,-0.0442
581,5.81,-594.19,-0.0288
582,5.82,-594.18,-0.0322
583,5.83,-594.17,-0.0349
584,5.84,-594.16,-0.0291
585,5.85,-594.15,-0.0159
586,5.86,-594.14,-0.0181
587,5.87,-594.13,-0.0412
588,5.88,-594.12,-0.0365
589,5.89,-594.11,-0.0323
590,5.9,-594.1,-0.0519
591,5.91,-594.09,-0.0278
592,5.92,-594.08,0.0182
593,5.93,-594.07,0.066
594,5.94,-594.06,0.1163
595,5.95,-594.05,0.1238
596,5.96,-594.04,0.1206
597,5.97,-594.03,0.1096
598,5.98,-594.02,0.0787
599,5.99,-594.01,0.0695
600,6,-594,0.0495
601,6.01,-593.99,0.0464
602,6.02,-593.98,0.0457
603,6.03,-593.97,0.0387
604,6.04,-593.96,0.026
605,6.05,-593.95,0.042
606,6.06,-593.94,0.0373
607,6.07,-593.93,0.0377
608,6.08,-593.92,0.0356
609,6.09,-593.91,0.0344
610,6.1,-593.9,0.034
611,6.11,-593.89,0.0142
612,6.12,-593.88,0.0115
613,6.13,-593.87,0.0108
614,6.14,-593.86,0.0122
615,6.15,-593.85,0.0086
616,6.16,-593.84,-0.0064
617,6.17,-593.83,-0.0165
618,6.18,-593.82,-0.0292
619,6.19,-593.81,-0.0236
620,6.2,-593.8,-0.0258
621,6.21,-593.79,-0.0205
622,6.22,-593.78,-0.035
623,6.23,-593.77,-0.0407
624,6.24,-593.76,-0.0056
625,6.25,-593.75,0.0389
626,6.26,-593.74,0.0506
627,6.27,-593.73,0.0674
628,6.28,-593.72,0.0807
629,6.29,-593.71,0.0578
630,6.3,-593.7,0.0376
631,6.31,-593.69,0.0283
632,6.32,-593.68,-0.0041
633,6.33,-593.67,-0.0428
634,6.34,-593.66,-0.0464
635,6.35,-593.65,-0.028
636,6.36,-593.64,-0.0357
637,6.37,-593.63,-0.0491
638,6.38,-593.62,-0.039
639,6.39,-593.61,-0.0149
640,6.4,-593.6,0.1273
641,6.41,-593.59,0.9451
642,6.42,-593.58,1.7487
643,6.43,-593.57,0.8017
644,6.44,-593.56,-0.5421
645,6.45,-593.55,-0.639
646,6.46,-593.54,-0.4334
647,6.47,-593.53,-0.2165
648,6.48,-593.52,-0.1106
649,6.49,-593.51,-0.053
650,6.5,-593.5,-0.0469
651,6.51,-593.49,-0.0452
652,6.52,-593.48,-0.0476
653,6.53,-593.47,-0.0374
654,6.54,-593.46,-0.0259
655,6.55,-593.45,-0.0325
656,6.56,-593.44,-0.0324
657,6.57,-593.43,-0.0376
658,6.58,-593.42,-0.0372
659,6.59,-593.41,-0.0451
660,6.6,-593.4,-0.0593
661,6.61,-593.39,-0.0438
662,6.62,-593.38,-0.0519
663,6.63,-593.37,-0.0346
664,6.64,-593.36,-0.0597
665,6.65,-593.35,-0.0472
666,6.66,-593.34,-0.0544
667,6.67,-593.33,-0.0695
668,6.68,-593.32,-0.0631
669,6.69,-593.31,-0.0492
670,6.7,-593.3,-0.0596
671,6.71,-593.29,-0.0168
672,6.72,-593.28,0.017
673,6.73,-593.27,0.0315
674,6.74,-593.26,0.0713
675,6.75,-593.25,0.0683
676,6.76,-593.24,0.0883
677,6.77,-593.23,0.0708
678,6.78,-593.22,0.0547
679,6.79,-593.21,0.0562
680,6.8,-593.2,0.0438
681,6.81,-593.19,0.025
682,6.82,-593.18,0.0242
683,6.83,-593.17,0.0372
684,6.84,-593.16,0.0204
685,6.85,-593.15,0.0191
686,6.86,-593.14,0.0176
687,6.87,-593.13,0.0344
688,6.88,-593.12,0.0367
689,6.89,-593.11,0.0334
690,6.9,-593.1,0.0348
691,6.91,-593.09,0.0139
692,6.92,-593.08,0.0136
693,6.93,-593.07,0.0036
694,6.94,-593.06,-0.0117
695,6.95,-593.05,-0.0032
696,6.96,-593.04,-0.0156
697,6.97,-593.03,-0.0179
698,6.98,-593.02,-0.0023
699,6.99,-593.01,-0.0235
700,7,-593,-0.0238
701,7.01,-592.99,-0.0131
702,7.02,-592.98,0.0178
703,7.03,-592.97,0.0244
704,7.04,-592.96,0.0498
705,7.05,-592.95,0.0775
706,7.06,-592.94,0.0929
707,7.07,-592.93,0.0853
708,7.08,-592.92,0.0563
709,7.09,-592.91,0.0394
710,7.1,-592.9,-0.0136
711,7.11,-592.89,-0.0586
712,7.12,-592.88,-0.0787
713,7.13,-592.87,-0.0737
714,7.14,-592.86,-0.0717
715,7.15,-592.85,-0.0697
716,7.16,-592.84,-0.065
717,7.17,-592.83,-0.0764
718,7.18,-592.82,-0.0117
719,7.19,-592.81,0.6641
720,7.2,-592.8,1.7203
721,7.21,-592.79,1.3878
722,7.22,-592.78,-0.2231
723,7.23,-592.77,-0.7503
724,7.24,-592.76,-0.4804
725,7.25,-592.75,-0.2615
726,7.26,-592.74,-0.1568
727,7.27,-592.73,-0.0904
728,7.28,-592.72,-0.0623
729,7.29,-592.71,-0.0688
730,7.3,-592.7,-0.0519
731,7.31,-592.69,-0.0608
732,7.32,-592.68,-0.0555
733,7.33,-592.67,-0.0714
734,7.34,-592.66,-0.072
735,7.35,-592.65,-0.0553
736,7.36,-592.64,-0.0542
737,7.37,-592.63,-0.0555
738,7.38,-592.62,-0.0582
739,7.39,-592.61,-0.0553
740,7.4,-592.6,-0.0418
741,7.41,-592.59,-0.0318
742,7.42,-592.58,-0.0219
743,7.43,-592.57,-0.0257
744,7.44,-592.56,-0.0292
745,7.45,-592.55,-0.02
746,7.46,-592.54,-0.009
747,7.47,-592.53,-0.0151
748,7.48,-592.52,-0.0123
749,7.49,-592.51,0.0216
750,7.5,-592.5,0.0592
751,7.51,-592.49,0.0752
752,7.52,-592.48,0.1066
753,7.53,-592.47,0.1051
754,7.54,-592.46,0.0909
755,7.55,-592.45,0.0718
756,7.56,-592.44,0.0454
757,7.57,-592.43,0.0474
758,7.58,-592.42,0.0429
759,7.59,-592.41,0.0261
760,7.6,-592.4,0.0168
761,7.61,-592.39,0.0315
762,7.62,-592.38,0.0282
763,7.63,-592.37,0.0131
764,7.64,-592.36,0.0232
765,7.65,-592.35,0.0017
766,7.66,-592.34,0.0105
767,7.67,-592.33,-0.0045
768,7.68,-592.32,0.0006
769,7.69,-592.31,0.0045
770,7.7,-592.3,0.0027
771,7.71,-592.29,0.0172
772,7.72,-592.28,0.0099
773,7.73,-592.27,0.0166
774,7.74,-592.26,-0.0001
775,7.75,-592.25,-0.0084
776,7.76,-592.24,-0.0237
777,7.77,-592.23,-0.0236
778,7.78,-592.22,-0.0201
779,7.79,-592.21,-0.0388
780,7.8,-592.2,-0.0328
781,7.81,-592.19,-0.004
782,7.82,-592.18,0.0246
783,7.83,-592.17,0.0488
784,7.84,-592.16,0.0605
785,7.85,-592.15,0.0788
786,7.86,-592.14,0.0805
787,7.87,-592.13,0.0485
788,7.88,-592.12,0.0418
789,7.89,-592.11,0.0116
790,7.9,-592.1,-0.0401
791,7.91,-592.09,-0.0642
792,7.92,-592.08,-0.0614
793,7.93,-592.07,-0.0583
794,7.94,-592.06,-0.054
795,7.95,-592.05,-0.0517
796,7.96,-592.04,-0.0276
797,7.97,-592.03,-0.0507
798,7.98,-592.02,0.355
799,7.99,-592.01,1.4562
800,8,-592,1.8078
801,8.01,-591.99,0.3751
802,8.02,-591.98,-0.7128
803,8.03,-591.97,-0.5639
804,8.04,-591.96,-0.2884
805,8.05,-591.95,-0.1499
806,8.06,-591.94,-0.0827
807,8.07,-591.93,-0.0413
808,8.08,-591.92,-0.0475
809,8.09,-591.91,-0.0442
810,8.1,-591.9,-0.0481
811,8.11,-591.89,-0.0496
812,8.12,-591.88,-0.074
813,8.13,-591.87,-0.0627
814,8.14,-591.86,-0.0531
815,8.15,-591.85,-0.0585
816,8.16,-591.84,-0.0582
817,8.17,-591.83,-0.0619
818,8.18,-591.82,-0.062
819,8.19,-591.81,-0.0666
820,8.2,-591.8,-0.0617
821,8.21,-591.79,-0.0468
822,8.22,-591.78,-0.0543
823,8.23,-591.77,-0.0353
824,8.24,-591.76,-0.0397
825,8.25,-591.75,-0.0319
826,8.26,-591.74,-0.0091
827,8.27,-591.73,-0.0023
828,8.28,-591.72,0.0065
829,8.29,-591.71,0.0257
830,8.3,-591.7,0.0618
831,8.31,-591.69,0.0807
832,8.32,-591.68,0.0997
833,8.33,-591.67,0.0952
834,8.34,-591.66,0.0799
835,8.35,-591.65,0.0471
836,8.36,-591.64,0.0488
837,8.37,-591.63,0.0316
838,8.38,-591.62,0.0203
839,8.39,-591.61,0.0004
840,8.4,-591.6,0.0022
841,8.41,-591.59,0.0194
842,8.42,-591.58,0.0142
843,8.43,-591.57,0.0152
844,8.44,-591.56,0.0131
845,8.45,-591.55,0.0118
846,8.46,-591.54,0.0115
847,8.47,-591.53,0.0077
848,8.48,-591.52,0.0142
849,8.49,-591.51,0.029
850,8.5,-591.5,0.0264
851,8.51,-591.49,0.0088
852,8.52,-591.48,0.006
853,8.53,-591.47,0.0076
854,8.54,-591.46,0.0094
855,8.55,-591.45,-0.0099
856,8.56,-591.44,-0.0308
857,8.57,-591.43,-0.0255
858,8.58,-591.42,-0.0388
859,8.59,-591.41,-0.0479
860,8.6,-591.4,-0.0337
861,8.61,-591.39,-0.0224
862,8.62,-591.38,0.0091
863,8.63,-591.37,0.0288
864,8.64,-591.36,0.0475
865,8.65,-591.35,0.0811
866,8.66,-591.34,0.0785
867,8.67,-591.33,0.0316
868,8.68,-591.32,0.0374
869,8.69,-591.31,0.0096
870,8.7,-591.3,-0.0598
871,8.71,-591.29,-0.0752
872,8.72,-591.28,-0.065
873,8.73,-591.27,-0.0781
874,8.74,-591.26,-0.0738
875,8.75,-591.25,-0.0724
876,8.76,-591.24,-0.0757
877,8.77,-591.23,-0.0611
878,8.78,-591.22,0.4574
879,8.79,-591.21,1.5667
880,8.8,-591.2,1.6394
881,8.81,-591.19,0.0621
882,8.82,-591.18,-0.8057
883,8.83,-591.17,-0.5825
884,8.84,-591.16,-0.3069
885,8.85,-591.15,-0.1823
886,8.86,-591.14,-0.1149
887,8.87,-591.13,-0.0934
888,8.88,-591.12,-0.0987
889,8.89,-591.11,-0.0654
890,8.9,-591.1,-0.0594
891,8.91,-591.09,-0.06
892,8.92,-591.08,-0.06
893,8.93,-591.07,-0.0609
894,8.94,-591.06,-0.0616
895,8.95,-591.05,-0.061
896,8.96,-591.04,-0.0399
897,8.97,-591.03,-0.0523
898,8.98,-591.02,-0.0667
899,8.99,-591.01,-0.0423
900,9,-591,-0.0238
901,9.01,-590.99,-0.0243
902,9.02,-590.98,-0.0263
903,9.03,-590.97,-0.0062
904,9.04,-590.96,0.0151
905,9.05,-590.95,0.0116
906,9.06,-590.94,0.0133
907,9.07,-590.93,0.0268
908,9.08,-590.92,0.0415
909,9.09,-590.91,0.0825
910,9.1,-590.9,0.103
911,9.11,-590.89,0.1295
912,9.12,-590.88,0.123
913,9.13,-590.87,0.0977
914,9.14,-590.86,0.0698
915,9.15,-590.85,0.0487
916,9.16,-590.84,0.0374
917,9.17,-590.83,0.0242
918,9.18,-590.82,0.0093
919,9.19,-590.81,-0.0147
920,9.2,-590.8,0.0022
921,9.21,-590.79,0.0042
922,9.22,-590.78,-0.0131
923,9.23,-590.77,-0.0169
924,9.24,-590.76,-0.0015
925,9.25,-590.75,-0.0232
926,9.26,-590.74,-0.0035
927,9.27,-590.73,0.0198
928,9.28,-590.72,0.0211
929,9.29,-590.71,0.0209
930,9.3,-590.7,0.0207
931,9.31,-590.69,0.0221
932,9.32,-590.68,0.0206
933,9.33,-590.67,0.0249
934,9.34,-590.66,0.0082
935,9.35,-590.65,0.002
936,9.36,-590.64,-0.0188
937,9.37,-590.63,-0.0023
938,9.38,-590.62,-0.0062
939,9.39,-590.61,-0.0139
940,9.4,-590.6,-0.0144
941,9.41,-590.59,-0.0329
942,9.42,-590.58,-0.0124
943,9.43,-590.57,0.017
944,9.44,-590.56,0.0371
945,9.45,-590.55,0.0478
946,9.46,-590.54,0.0782
947,9.47,-590.53,0.085
948,9.48,-590.52,0.0585
949,9.49,-590.51,0.0499
950,9.5,-590.5,0.0241
951,9.51,-590.49,-0.0296
952,9.52,-590.48,-0.0458
953,9.53,-590.47,-0.0432
954,9.54,-590.46,-0.0413
955,9.55,-590.45,-0.0374
956,9.56,-590.44,-0.0387
957,9.57,-590.43,-0.03
958,9.58,-590.42,-0.0547
959,9.59,-590.41,0.1853
960,9.6,-590.4,1.153
961,9.61,-590.39,1.9065
962,9.62,-590.38,0.8502
963,9.63,-590.37,-0.5642
964,9.64,-590.36,-0.6349
965,9.65,-590.35,-0.3651
966,9.66,-590.34,-0.173
967,9.67,-590.33,-0.1215
968,9.68,-590.32,-0.0701
969,9.69,-590.31,-0.0592
970,9.7,-590.3,-0.06
971,9.71,-590.29,-0.062
972,9.72,-590.28,-0.0644
973,9.73,-590.27,-0.0665
974,9.74,-590.26,-0.069
975,9.75,-590.25,-0.0721
976,9.76,-590.24,-0.0741
977,9.77,-590.23,-0.077
978,9.78,-590.22,-0.0771
979,9.79,-590.21,-0.0813
980,9.8,-590.2,-0.0753
981,9.81,-590.19,-0.0608
982,9.82,-590.18,-0.0658
983,9.83,-590.17,-0.0513
984,9.84,-590.16,-0.0671
985,9.85,-590.15,-0.0403
986,9.86,-590.14,-0.0344
987,9.87,-590.13,-0.0215
988,9.88,-590.12,-0.0156
989,9.89,-590.11,0.0064
990,9.9,-590.1,0.029
991,9.91,-590.09,0.0519
992,9.92,-590.08,0.0965
993,9.93,-590.07,0.1059
994,9.94,-590.06,0.1047
995,9.95,-590.05,0.0793
996,9.96,-590.04,0.0586
997,9.97,-590.03,0.0453
998,9.98,-590.02,0.0302
999,9.99,-590.01,0.0299
1000,10,-590,0.0072
1001,10.01,-589.99,0.0087
1002,10.02,-589.98,0.0072
1003,10.03,-589.97,0.0076
1004,10.04,-589.96,0.0075
1005,10.05,-589.95,0.007
1006,10.06,-589.94,0.0075
1007,10.07,-589.93,0.0051
1008,10.08,-589.92,0.0101
1009,10.09,-589.91,0.0274
1010,10.1,-589.9,0.0198
1011,10.11,-589.89,0.0099
1012,10.12,-589.88,0.0116
1013,10.13,-589.87,0.0113
1014,10.14,-589.86,0.0094
1015,10.15,-589.85,-0.0013
1016,10.16,-589.84,0.0035
1017,10.17,-589.83,0.0045
1018,10.18,-589.82,-0.0084
1019,10.19,-589.81,-0.0333
1020,10.2,-589.8,-0.0331
1021,10.21,-589.79,-0.029
1022,10.22,-589.78,-0.0439
1023,10.23,-589.77,-0.0474
1024,10.24,-589.76,-0.0241
1025,10.25,-589.75,-0.0191
1026,10.26,-589.74,0.0302
1027,10.27,-589.73,0.0406
1028,10.28,-589.72,0.0455
1029,10.29,-589.71,0.0743
1030,10.3,-589.7,0.0898
1031,10.31,-589.69,0.0467
1032,10.32,-589.68,0.0317
1033,10.33,-589.67,0.0119
1034,10.34,-589.66,-0.025
1035,10.35,-589.65,-0.0467
1036,10.36,-589.64,-0.0626
1037,10.37,-589.63,-0.0726
1038,10.38,-589.62,-0.0682
1039,10.39,-589.61,-0.0551
1040,10.4,-589.6,-0.0617
1041,10.41,-589.59,-0.0667
1042,10.42,-589.58,0.3307
1043,10.43,-589.57,1.424
1044,10.44,-589.56,1.8523
1045,10.45,-589.55,0.464
1046,10.46,-589.54,-0.7248
1047,10.47,-589.53,-0.6102
1048,10.48,-589.52,-0.2976
1049,10.49,-589.51,-0.1628
1050,10.5,-589.5,-0.1092
1051,10.51,-589.49,-0.0662
1052,10.52,-589.48,-0.0747
1053,10.53,-589.47,-0.0711
1054,10.54,-589.46,-0.075
1055,10.55,-589.45,-0.0738
1056,10.56,-589.44,-0.0762
1057,10.57,-589.43,-0.0756
1058,10.58,-589.42,-0.0795
1059,10.59,-589.41,-0.0598
1060,10.6,-589.4,-0.0623
1061,10.61,-589.39,-0.0514
1062,10.62,-589.38,-0.0409
1063,10.63,-589.37,-0.044
1064,10.64,-589.36,-0.0467
1065,10.65,-589.35,-0.0366
1066,10.66,-589.34,-0.0253
1067,10.67,-589.33,-0.0284
1068,10.68,-589.32,-0.0077
1069,10.69,-589.31,-0.0131
1070,10.7,-589.3,0.0022
1071,10.71,-589.29,0.0113
1072,10.72,-589.28,0.028
1073,10.73,-589.27,0.0666
1074,10.74,-589.26,0.1002
1075,10.75,-589.25,0.1402
1076,10.76,-589.24,0.1388
1077,10.77,-589.23,0.1098
1078,10.78,-589.22,0.0843
1079,10.79,-589.21,0.0587
1080,10.8,-589.2,0.0298
1081,10.81,-589.19,0.0157
1082,10.82,-589.18,0.0021
1083,10.83,-589.17,-0.0088
1084,10.84,-589.16,-0.0003
1085,10.85,-589.15,0.0167
1086,10.86,-589.14,-0.0023
1087,10.87,-589.13,-0.0093
1088,10.88,-589.12,-0.008
1089,10.89,-589.11,-0.0093
1090,10.9,-589.1,-0.0097
1091,10.91,-589.09,0.0074
1092,10.92,-589.08,0.0111
1093,10.93,-589.07,0.0082
1094,10.94,-589.06,0.0113
1095,10.95,-589.05,0.0226
1096,10.96,-589.04,0.0174
1097,10.97,-589.03,0.0217
1098,10.98,-589.02,0.0058
1099,10.99,-589.01,0.0119
1100,11,-589,0.0075
1101,11.01,-588.99,0.0124
1102,11.02,-588.98,-0.0047
1103,11.03,-588.97,-0.0115
1104,11.04,-588.96,-0.0082
1105,11.05,-588.95,-0.01
1106,11.06,-588.94,-0.0069
1107,11.07,-588.93,-0.0095
1108,11.08,-588.92,-0.0029
1109,11.09,-588.91,-0.0176
1110,11.1,-588.9,-0.0122
1111,11.11,-588.89,0.018
1112,11.12,-588.88,0.0449
1113,11.13,-588.87,0.0607
1114,11.14,-588.86,0.0741
1115,11.15,-588.85,0.0855
1116,11.16,-588.84,0.056
1117,11.17,-588.83,0.0466
1118,11.18,-588.82,0.0338
1119,11.19,-588.81,-0.011
1120,11.2,-588.8,-0.0597
1121,11.21,-588.79,-0.067
1122,11.22,-588.78,-0.0834
1123,11.23,-588.77,-0.0676
1124,11.24,-588.76,-0.0685
1125,11.25,-588.75,-0.0496
1126,11.26,-588.74,-0.0755
1127,11.27,-588.73,0.1319
1128,11.28,-588.72,1.1292
1129,11.29,-588.71,1.8925
1130,11.3,-588.7,0.8391
1131,11.31,-588.69,-0.6187
1132,11.32,-588.68,-0.703
1133,11.33,-588.67,-0.3852
1134,11.34,-588.66,-0.1895
1135,11.35,-588.65,-0.1382
1136,11.36,-588.64,-0.11
1137,11.37,-588.63,-0.0848
1138,11.38,-588.62,-0.0741
1139,11.39,-588.61,-0.078
1140,11.4,-588.6,-0.0787
1141,11.41,-588.59,-0.0813
1142,11.42,-588.58,-0.0845
1143,11.43,-588.57,-0.0852
1144,11.44,-588.56,-0.0691
1145,11.45,-588.55,-0.0721
1146,11.46,-588.54,-0.074
1147,11.47,-588.53,-0.0582
1148,11.48,-588.52,-0.0562
1149,11.49,-588.51,-0.0614
1150,11.5,-588.5,-0.0479
1151,11.51,-588.49,-0.0391
1152,11.52,-588.48,-0.0265
1153,11.53,-588.47,-0.0251
1154,11.54,-588.46,-0.0445
1155,11.55,-588.45,-0.037
1156,11.56,-588.44,-0.03
1157,11.57,-588.43,-0.0082
1158,11.58,-588.42,0.0131
1159,11.59,-588.41,0.0546
1160,11.6,-588.4,0.0999
1161,11.61,-588.39,0.1095
1162,11.62,-588.38,0.1047
1163,11.63,-588.37,0.1013
1164,11.64,-588.36,0.072
1165,11.65,-588.35,0.0526
1166,11.66,-588.34,0.053
1167,11.67,-588.33,0.0296
1168,11.68,-588.32,0.0252
1169,11.69,-588.31,0.0222
1170,11.7,-588.3,0.0341
1171,11.71,-588.29,0.0454
1172,11.72,-588.28,0.031
1173,11.73,-588.27,0.0277
1174,11.74,-588.26,0.0411
1175,11.75,-588.25,0.0353
1176,11.76,-588.24,0.036
1177,11.77,-588.23,0.0331
1178,11.78,-588.22,0.0321
1179,11.79,-588.21,0.0305
1180,11.8,-588.2,0.0287
1181,11.81,-588.19,0.0295
1182,11.82,-588.18,0.014
1183,11.83,-588.17,0.0021
1184,11.84,-588.16,-0.0125
1185,11.85,-588.15,-0.0152
1186,11.86,-588.14,-0.0095
1187,11.87,-588.13,-0.0345
1188,11.88,-588.12,-0.0435
1189,11.89,-588.11,-0.036
1190,11.9,-588.1,-0.0504
1191,11.91,-588.09,-0.0432
1192,11.92,-588.08,-0.044
1193,11.93,-588.07,-0.0411
1194,11.94,-588.06,-0.0387
1195,11.95,-588.05,-0.039
1196,11.96,-588.04,-0.0298
1197,11.97,-588.03,-0.006
1198,11.98,-588.02,0.0394
1199,11.99,-588.01,0.0516
1200,12,-588,0.0571
1201,12.01,-587.99,0.0772
1202,12.02,-587.98,0.0759
1203,12.03,-587.97,0.0619
1204,12.04,-587.96,0.057
1205,12.05,-587.95,0.0239
1206,12.06,-587.94,-0.0266
1207,12.07,-587.93,-0.022
1208,12.08,-587.92,-0.0224
1209,12.09,-587.91,-0.0186
1210,12.1,-587.9,-0.0179
1211,12.11,-587.89,-0.0003
1212,12.12,-587.88,-0.0182
1213,12.13,-587.87,0.0359
1214,12.14,-587.86,0.6669
1215,12.15,-587.85,1.7473
1216,12.16,-587.84,1.5667
1217,12.17,-587.83,-0.083
1218,12.18,-587.82,-0.7786
1219,12.19,-587.81,-0.4672
1220,12.2,-587.8,-0.1976
1221,12.21,-587.79,-0.099
1222,12.22,-587.78,-0.0599
1223,12.23,-587.77,-0.041
1224,12.24,-587.76,-0.0312
1225,12.25,-587.75,-0.0344
1226,12.26,-587.74,-0.0842
1227,12.27,-587.73,-0.0767
1228,12.28,-587.72,-0.0965
1229,12.29,-587.71,-0.0779
1230,12.3,-587.7,-0.0378
1231,12.31,-587.69,-0.0386
1232,12.32,-587.68,-0.0395
1233,12.33,-587.67,-0.039
1234,12.34,-587.66,-0.0553
1235,12.35,-587.65,-0.0481
1236,12.36,-587.64,-0.0364
1237,12.37,-587.63,-0.0233
1238,12.38,-587.62,-0.0264
1239,12.39,-587.61,-0.0248
1240,12.4,-587.6,-0.0063
1241,12.41,-587.59,-0.0103
1242,12.42,-587.58,0.0042
1243,12.43,-587.57,0.0296
1244,12.44,-587.56,0.0307
1245,12.45,-587.55,0.0682
1246,12.46,-587.54,0.1042
1247,12.47,-587.53,0.1224
1248,12.48,-587.52,0.103
1249,12.49,-587.51,0.1117
1250,12.5,-587.5,0.1382
1251,12.51,-587.49,0.1251
1252,12.52,-587.48,0.0898
1253,12.53,-587.47,0.0835
1254,12.54,-587.46,0.0478
1255,12.55,-587.45,0.0559
1256,12.56,-587.44,0.0515
1257,12.57,-587.43,0.0456
1258,12.58,-587.42,0.0476
1259,12.59,-587.41,0.0003
1260,12.6,-587.4,0.0371
1261,12.61,-587.39,-0.0006
1262,12.62,-587.38,0.0112
1263,12.63,-587.37,-0.0018
1264,12.64,-587.36,0.019
1265,12.65,-587.35,0.0001
1266,12.66,-587.34,0.022
1267,12.67,-587.33,0.0199
1268,12.68,-587.32,0.011
1269,12.69,-587.31,-0.0216
1270,12.7,-587.3,0.0162
1271,12.71,-587.29,0.0246
1272,12.72,-587.28,0.0092
1273,12.73,-587.27,-0.0128
1274,12.74,-587.26,-0.0237
1275,12.75,-587.25,-0.0196
1276,12.76,-587.24,-0.0172
1277,12.77,-587.23,-0.026
1278,12.78,-587.22,-0.0382
1279,12.79,-587.21,-0.0311
1280,12.8,-587.2,-0.0328
1281,12.81,-587.19,-0.0259
1282,12.82,-587.18,-0.0408
1283,12.83,-587.17,-0.0437
1284,12.84,-587.16,-0.0347
1285,12.85,-587.15,0.0145
1286,12.86,-587.14,0.091
1287,12.87,-587.13,0.0792
1288,12.88,-587.12,0.0932
1289,12.89,-587.11,0.0973
1290,12.9,-587.1,0.0543
1291,12.91,-587.09,0.0541
1292,12.92,-587.08,0.073
1293,12.93,-587.07,0.0122
1294,12.94,-587.06,-0.0437
1295,12.95,-587.05,-0.0811
1296,12.96,-587.04,-0.0605
1297,12.97,-587.03,-0.0536
1298,12.98,-587.02,-0.0623
1299,12.99,-587.01,-0.0543
1300,13,-587,-0.0759
1301,13.01,-586.99,0.0555
1302,13.02,-586.98,0.8507
1303,13.03,-586.97,1.7862
1304,13.04,-586.96,1.1506
1305,13.05,-586.95,-0.4544
1306,13.06,-586.94,-0.7886
1307,13.07,-586.93,-0.3902
1308,13.08,-586.92,-0.2008
1309,13.09,-586.91,-0.1275
1310,13.1,-586.9,-0.0941
1311,13.11,-586.89,-0.083
1312,13.12,-586.88,-0.0892
1313,13.13,-586.87,-0.1027
1314,13.14,-586.86,-0.0993
1315,13.15,-586.85,-0.0997
1316,13.16,-586.84,-0.0537
1317,13.17,-586.83,-0.0845
1318,13.18,-586.82,-0.0931
1319,13.19,-586.81,-0.0618
1320,13.2,-586.8,-0.0656
1321,13.21,-586.79,-0.0639
1322,13.22,-586.78,-0.0663
1323,13.23,-586.77,-0.0661
1324,13.24,-586.76,-0.0679
1325,13.25,-586.75,-0.0685
1326,13.26,-586.74,-0.0705
1327,13.27,-586.73,-0.0697
1328,13.28,-586.72,-0.0514
1329,13.29,-586.71,-0.0559
1330,13.3,-586.7,-0.0419
1331,13.31,-586.69,-0.0492
1332,13.32,-586.68,-0.0137
1333,13.33,-586.67,0.0541
1334,13.34,-586.66,0.0957
1335,13.35,-586.65,0.1204
1336,13.36,-586.64,0.1544
1337,13.37,-586.63,0.1236
1338,13.38,-586.62,0.0989
1339,13.39,-586.61,0.0894
1340,13.4,-586.6,0.0665
1341,13.41,-586.59,0.0387
1342,13.42,-586.58,0.0121
1343,13.43,-586.57,0.0214
1344,13.44,-586.56,0.0285
1345,13.45,-586.55,0.0129
1346,13.46,-586.54,0.0016
1347,13.47,-586.53,0.0179
1348,13.48,-586.52,0.0049
1349,13.49,-586.51,0.0316
1350,13.5,-586.5,0.043
1351,13.51,-586.49,0.0008
1352,13.52,-586.48,0.0029
1353,13.53,-586.47,0.0203
1354,13.54,-586.46,0.0162
1355,13.55,-586.45,0.0166
1356,13.56,-586.44,-0.0053
1357,13.57,-586.43,0.0001
1358,13.58,-586.42,-0.0178
1359,13.59,-586.41,-0.0232
1360,13.6,-586.4,-0.0225
1361,13.61,-586.39,-0.0133
1362,13.62,-586.38,0.0048
1363,13.63,-586.37,-0.0238
1364,13.64,-586.36,-0.0324
1365,13.65,-586.35,-0.0187
1366,13.66,-586.34,-0.0031
1367,13.67,-586.33,0.0052
1368,13.68,-586.32,0.0319
1369,13.69,-586.31,0.0448
1370,13.7,-586.3,0.0745
1371,13.71,-586.29,0.1099
1372,13.72,-586.28,0.0844
1373,13.73,-586.27,0.0616
1374,13.74,-586.26,0.0505
1375,13.75,-586.25,0.0376
1376,13.76,-586.24,-0.0201
1377,13.77,-586.23,-0.036
1378,13.78,-586.22,-0.0163
1379,13.79,-586.21,-0.0225
1380,13.8,-586.2,-0.0108
1381,13.81,-586.19,0.0054
1382,13.82,-586.18,-0.0082
1383,13.83,-586.17,0.023
1384,13.84,-586.16,0.6251
1385,13.85,-586.15,1.7093
1386,13.86,-586.14,1.3689
1387,13.87,-586.13,-0.1944
1388,13.88,-586.12,-0.6738
1389,13.89,-586.11,-0.4939
1390,13.9,-586.1,-0.3087
1391,13.91,-586.09,-0.1184
1392,13.92,-586.08,-0.0847
1393,13.93,-586.07,-0.062
1394,13.94,-586.06,-0.0569
1395,13.95,-586.05,-0.023
1396,13.96,-586.04,-0.034
1397,13.97,-586.03,-0.0501
1398,13.98,-586.02,-0.0495
1399,13.99,-586.01,-0.0544
1400,14,-586,-0.054
1401,14.01,-585.99,-0.0616
1402,14.02,-585.98,-0.0332
1403,14.03,-585.97,-0.017
1404,14.04,-585.96,-0.0347
1405,14.05,-585.95,-0.0396
1406,14.06,-585.94,-0.0267
1407,14.07,-585.93,-0.0366
1408,14.08,-585.92,-0.028
1409,14.09,-585.91,-0.0247
1410,14.1,-585.9,-0.0592
1411,14.11,-585.89,-0.0471
1412,14.12,-585.88,-0.0466
1413,14.13,-585.87,-0.0524
1414,14.14,-585.86,-0.041
1415,14.15,-585.85,0.0014
1416,14.16,-585.84,0.0282
1417,14.17,-585.83,0.08
1418,14.18,-585.82,0.0975
1419,14.19,-585.81,0.0882
1420,14.2,-585.8,0.0906
1421,14.21,-585.79,0.0738
1422,14.22,-585.78,0.0586
1423,14.23,-585.77,0.0586
1424,14.24,-585.76,0.0531
1425,14.25,-585.75,0.052
1426,14.26,-585.74,0.0469
1427,14.27,-585.73,0.0496
1428,14.28,-585.72,0.0647
1429,14.29,-585.71,0.0666
1430,14.3,-585.7,0.048
1431,14.31,-585.69,0.0427
1432,14.32,-585.68,0.0584
1433,14.33,-585.67,0.027
1434,14.34,-585.66,0.0173
1435,14.35,-585.65,0.0198
1436,14.36,-585.64,0.0119
1437,14.37,-585.63,-0.0049
1438,14.38,-585.62,-0.0014
1439,14.39,-585.61,-0.0048
1440,14.4,-585.6,-0.0233
1441,14.41,-585.59,-0.0205
1442,14.42,-585.58,-0.0228
1443,14.43,-585.57,-0.0173
1444,14.44,-585.56,-0.0277
1445,14.45,-585.55,-0.0303
1446,14.46,-585.54,-0.0141
1447,14.47,-585.53,-0.0166
1448,14.48,-585.52,0.0113
1449,14.49,-585.51,0.0367
1450,14.5,-585.5,0.0518
1451,14.51,-585.49,0.0465
1452,14.52,-585.48,0.0828
1453,14.53,-585.47,0.0742
1454,14.54,-585.46,0.05
1455,14.55,-585.45,0.0395
1456,14.56,-585.44,-0.0166
1457,14.57,-585.43,-0.0437
1458,14.58,-585.42,-0.0355
1459,14.59,-585.41,-0.0584
1460,14.6,-585.4,-0.0689
1461,14.61,-585.39,-0.0512
1462,14.62,-585.38,-0.0498
1463,14.63,-585.37,-0.0644
1464,14.64,-585.36,0.3268
1465,14.65,-585.35,1.3834
1466,14.66,-585.34,1.8729
1467,14.67,-585.33,0.4618
1468,14.68,-585.32,-0.6999
1469,14.69,-585.31,-0.5813
1470,14.7,-585.3,-0.3435
1471,14.71,-585.29,-0.1713
1472,14.72,-585.28,-0.0849
1473,14.73,-585.27,-0.0422
1474,14.74,-585.26,-0.0658
1475,14.75,-585.25,-0.0603
1476,14.76,-585.24,-0.0544
1477,14.77,-585.23,-0.0516
1478,14.78,-585.22,-0.0518
1479,14.79,-585.21,-0.0423
1480,14.8,-585.2,-0.0447
1481,14.81,-585.19,-0.0576
1482,14.82,-585.18,-0.0564
1483,14.83,-585.17,-0.0451
1484,14.84,-585.16,-0.0509
1485,14.85,-585.15,-0.049
1486,14.86,-585.14,-0.0518
1487,14.87,-585.13,-0.0516
1488,14.88,-585.12,-0.0281
1489,14.89,-585.11,-0.0131
1490,14.9,-585.1,-0.0187
1491,14.91,-585.09,-0.0173
1492,14.92,-585.08,-0.0235
1493,14.93,-585.07,-0.0123
1494,14.94,-585.06,-0.0026
1495,14.95,-585.05,0.0108
1496,14.96,-585.04,0.0426
1497,14.97,-585.03,0.084
1498,14.98,-585.02,0.0882
1499,14.99,-585.01,0.0883
1500,15,-585,0.0785
1501,15.01,-584.99,0.0623
1502,15.02,-584.98,0.0485
1503,15.03,-584.97,0.0184
1504,15.04,-584.96,0.0182
1505,15.05,-584.95,0.0145
1506,15.06,-584.94,0.0159
1507,15.07,-584.93,0.0275
1508,15.08,-584.92,0.0195
1509,15.09,-584.91,0.0335
1510,15.1,-584.9,0.0324
1511,15.11,-584.89,0.0114
1512,15.12,-584.88,0.0146
1513,15.13,-584.87,0.0304
1514,15.14,-584.86,0.027
1515,15.15,-584.85,0.0255
1516,15.16,-584.84,0.0285
1517,15.17,-584.83,0.0146
1518,15.18,-584.82,0.0056
1519,15.19,-584.81,-0.0138
1520,15.2,-584.8,-0.0064
1521,15.21,-584.79,0.0001
1522,15.22,-584.78,-0.0141
1523,15.23,-584.77,-0.0264
1524,15.24,-584.76,-0.0301
1525,15.25,-584.75,-0.0276
1526,15.26,-584.74,-0.0248
1527,15.27,-584.73,-0.0262
1528,15.28,-584.72,-0.0098
1529,15.29,-584.71,0.0263
1530,15.3,-584.7,0.0218
1531,15.31,-584.69,0.0453
1532,15.32,-584.68,0.0535
1533,15.33,-584.67,0.0778
1534,15.34,-584.66,0.0461
1535,15.35,-584.65,0.0324
1536,15.36,-584.64,0.0156
1537,15.37,-584.63,-0.0529
1538,15.38,-584.62,-0.0799
1539,15.39,-584.61,-0.0707
1540,15.4,-584.6,-0.0706
1541,15.41,-584.59,-0.0659
1542,15.42,-584.58,-0.0647
1543,15.43,-584.57,-0.062
1544,15.44,-584.56,-0.076
1545,15.45,-584.55,0.2157
1546,15.46,-584.54,1.2452
1547,15.47,-584.53,1.9559
1548,15.48,-584.52,0.7469
1549,15.49,-584.51,-0.6274
1550,15.5,-584.5,-0.6483
1551,15.51,-584.49,-0.3936
1552,15.52,-584.48,-0.1871
1553,15.53,-584.47,-0.1016
1554,15.54,-584.46,-0.0507
1555,15.55,-584.45,-0.0705
1556,15.56,-584.44,-0.0689
1557,15.57,-584.43,-0.0376
1558,15.58,-584.42,-0.0586
1559,15.59,-584.41,-0.0659
1560,15.6,-584.4,-0.064
1561,15.61,-584.39,-0.0697
1562,15.62,-584.38,-0.0537
1563,15.63,-584.37,-0.049
1564,15.64,-584.36,-0.051
1565,15.65,-584.35,-0.0544
1566,15.66,-584.34,-0.0398
1567,15.67,-584.33,-0.0339
1568,15.68,-584.32,-0.0372
1569,15.69,-584.31,-0.0391
1570,15.7,-584.3,-0.0269
1571,15.71,-584.29,-0.0179
1572,15.72,-584.28,-0.0272
1573,15.73,-584.27,-0.0135
1574,15.74,-584.26,-0.0069
1575,15.75,-584.25,0.0106
1576,15.76,-584.24,0.0322
1577,15.77,-584.23,0.0678
1578,15.78,-584.22,0.0899
1579,15.79,-584.21,0.0973
1580,15.8,-584.2,0.107
1581,15.81,-584.19,0.0801
1582,15.82,-584.18,0.0394
1583,15.83,-584.17,0.0352
1584,15.84,-584.16,0.0337
1585,15.85,-584.15,0.0314
1586,15.86,-584.14,0.0321
1587,15.87,-584.13,0.0098
1588,15.88,-584.12,-0.0118
1589,15.89,-584.11,-0.012
1590,15.9,-584.1,0.0002
1591,15.91,-584.09,0.0288
1592,15.92,-584.08,0.0205
1593,15.93,-584.07,0.004
1594,15.94,-584.06,0.006
1595,15.95,-584.05,0.0211
1596,15.96,-584.04,0.0273
1597,15.97,-584.03,0.0135
1598,15.98,-584.02,0.0012
1599,15.99,-584.01,0.0056
1600,16,-584,-0.0015
1601,16.01,-583.99,-0.0198
1602,16.02,-583.98,-0.0004
1603,16.03,-583.97,-0.0111
1604,16.04,-583.96,-0.0169
1605,16.05,-583.95,-0.0107
1606,16.06,-583.94,-0.0282
1607,16.07,-583.93,-0.0313
1608,16.08,-583.92,-0.0093
1609,16.09,-583.91,-0.0042
1610,16.1,-583.9,0.0438
1611,16.11,-583.89,0.0548
1612,16.12,-583.88,0.0574
1613,16.13,-583.87,0.0885
1614,16.14,-583.86,0.099
1615,16.15,-583.85,0.0957
1616,16.16,-583.84,0.0568
1617,16.17,-583.83,0.0665
1618,16.18,-583.82,0.0212
1619,16.19,-583.81,-0.0405
1620,16.2,-583.8,-0.0499
1621,16.21,-583.79,-0.0297
1622,16.22,-583.78,-0.0467
1623,16.23,-583.77,-0.0507
1624,16.24,-583.76,-0.0254
1625,16.25,-583.75,-0.0415
1626,16.26,-583.74,0.0359
1627,16.27,-583.73,0.7609
1628,16.28,-583.72,1.8699
1629,16.29,-583.71,1.4221
1630,16.3,-583.7,-0.2415
1631,16.31,-583.69,-0.7387
1632,16.32,-583.68,-0.4519
1633,16.33,-583.67,-0.237
1634,16.34,-583.66,-0.1154
1635,16.35,-583.65,-0.0629
1636,16.36,-583.64,-0.0592
1637,16.37,-583.63,-0.0642
1638,16.38,-583.62,-0.0485
1639,16.39,-583.61,-0.0447
1640,16.4,-583.6,-0.0919
1641,16.41,-583.59,-0.0732
1642,16.42,-583.58,-0.0837
1643,16.43,-583.57,-0.074
1644,16.44,-583.56,-0.0732
1645,16.45,-583.55,-0.0645
1646,16.46,-583.54,-0.0529
1647,16.47,-583.53,-0.0569
1648,16.48,-583.52,-0.0595
1649,16.49,-583.51,-0.0495
1650,16.5,-583.5,-0.0391
1651,16.51,-583.49,-0.0414
1652,16.52,-583.48,-0.0236
1653,16.53,-583.47,-0.0259
1654,16.54,-583.46,-0.0298
1655,16.55,-583.45,-0.0093
1656,16.56,-583.44,0.0065
1657,16.57,-583.43,0.0209
1658,16.58,-583.42,0.0769
1659,16.59,-583.41,0.1009
1660,16.6,-583.4,0.1234
1661,16.61,-583.39,0.1061
1662,16.62,-583.38,0.0945
1663,16.63,-583.37,0.0756
1664,16.64,-583.36,0.0682
1665,16.65,-583.35,0.0344
1666,16.66,-583.34,0.0417
1667,16.67,-583.33,0.0253
1668,16.68,-583.32,-0.0151
1669,16.69,-583.31,0.0165
1670,16.7,-583.3,0.0241
1671,16.71,-583.29,0.0201
1672,16.72,-583.28,0.0252
1673,16.73,-583.27,0.0077
1674,16.74,-583.26,0.0128
1675,16.75,-583.25,0.0191
1676,16.76,-583.24,0.0235
1677,16.77,-583.23,0.0314
1678,16.78,-583.22,0.0106
1679,16.79,-583.21,0.0213
1680,16.8,-583.2,0.0054
1681,16.81,-583.19,0.0054
1682,16.82,-583.18,0.0049
1683,16.83,-583.17,-0.009
1684,16.84,-583.16,0.0014
1685,16.85,-583.15,-0.0153
1686,16.86,-583.14,-0.0216
1687,16.87,-583.13,-0.0253
1688,16.88,-583.12,-0.0337
1689,16.89,-583.11,-0.0259
1690,16.9,-583.1,-0.0424
1691,16.91,-583.09,-0.0156
1692,16.92,-583.08,-0.0159
1693,16.93,-583.07,-0.0044
1694,16.94,-583.06,0.0264
1695,16.95,-583.05,0.0479
1696,16.96,-583.04,0.0601
1697,16.97,-583.03,0.0762
1698,16.98,-583.02,0.0786
1699,16.99,-583.01,0.0595
1700,17,-583,0.0424
1701,17.01,-582.99,0.0292
1702,17.02,-582.98,-0.029
1703,17.03,-582.97,-0.0641
1704,17.04,-582.96,-0.0578
1705,17.05,-582.95,-0.0596
1706,17.06,-582.94,-0.0408
1707,17.07,-582.93,-0.0468
1708,17.08,-582.92,-0.0407
1709,17.09,-582.91,-0.0642
1710,17.1,-582.9,0.3382
1711,17.11,-582.89,1.4465
1712,17.12,-582.88,1.9087
1713,17.13,-582.87,0.5151
1714,17.14,-582.86,-0.7191
1715,17.15,-582.85,-0.5972
1716,17.16,-582.84,-0.2997
1717,17.17,-582.83,-0.1539
1718,17.18,-582.82,-0.0854
1719,17.19,-582.81,-0.0652
1720,17.2,-582.8,-0.0735
1721,17.21,-582.79,-0.0709
1722,17.22,-582.78,-0.0742
1723,17.23,-582.77,-0.0752
1724,17.24,-582.76,-0.0758
1725,17.25,-582.75,-0.0796
1726,17.26,-582.74,-0.0779
1727,17.27,-582.73,-0.0863
1728,17.28,-582.72,-0.0701
1729,17.29,-582.71,-0.0506
1730,17.3,-582.7,-0.0716
1731,17.31,-582.69,-0.0476
1732,17.32,-582.68,-0.0505
1733,17.33,-582.67,-0.0502
1734,17.34,-582.66,-0.0535
1735,17.35,-582.65,-0.0365
1736,17.36,-582.64,-0.0321
1737,17.37,-582.63,-0.0058
1738,17.38,-582.62,0.0017
1739,17.39,-582.61,-0.0008
1740,17.4,-582.6,0.0213
1741,17.41,-582.59,0.0447
1742,17.42,-582.58,0.0662
1743,17.43,-582.57,0.1076
1744,17.44,-582.56,0.107
1745,17.45,-582.55,0.1082
1746,17.46,-582.54,0.0761
1747,17.47,-582.53,0.0541
1748,17.48,-582.52,0.0423
1749,17.49,-582.51,0.0265
1750,17.5,-582.5,0.0143
1751,17.51,-582.49,0.016
1752,17.52,-582.48,0.0139
1753,17.53,-582.47,0.0144
1754,17.54,-582.46,0.0128
1755,17.55,-582.45,0.0134
1756,17.56,-582.44,0.0113
1757,17.57,-582.43,0.0129
1758,17.58,-582.42,0.0088
1759,17.59,-582.41,0.0147
1760,17.6,-582.4,0.0231
1761,17.61,-582.39,0.0091
1762,17.62,-582.38,-0.0054
1763,17.63,-582.37,0.0041
1764,17.64,-582.36,0.0096
1765,17.65,-582.35,0.0081
1766,17.66,-582.34,-0.0041
1767,17.67,-582.33,-0.0156
1768,17.68,-582.32,-0.0058
1769,17.69,-582.31,-0.0235
1770,17.7,-582.3,-0.0152
1771,17.71,-582.29,-0.024
1772,17.72,-582.28,-0.0264
1773,17.73,-582.27,-0.033
1774,17.74,-582.26,-0.0468
1775,17.75,-582.25,-0.0223
1776,17.76,-582.24,-0.0421
1777,17.77,-582.23,-0.0259
1778,17.78,-582.22,-0.0118
1779,17.79,-582.21,0.0213
1780,17.8,-582.2,0.0402
1781,17.81,-582.19,0.0523
1782,17.82,-582.18,0.0714
1783,17.83,-582.17,0.0787
1784,17.84,-582.16,0.0611
1785,17.85,-582.15,0.0583
1786,17.86,-582.14,0.0165
1787,17.87,-582.13,-0.0304
1788,17.88,-582.12,-0.0501
1789,17.89,-582.11,-0.0439
1790,17.9,-582.1,-0.0443
1791,17.91,-582.09,-0.0374
1792,17.92,-582.08,-0.0452
1793,17.93,-582.07,-0.0579
1794,17.94,-582.06,0.0052
1795,17.95,-582.05,0.6682
1796,17.96,-582.04,1.7642
1797,17.97,-582.03,1.5306
1798,17.98,-582.02,-0.1442
1799,17.99,-582.01,-0.7672
1800,18,-582,-0.4658
1801,18.01,-581.99,-0.2368
1802,18.02,-581.98,-0.1311
1803,18.03,-581.97,-0.0673
1804,18.04,-581.96,-0.0584
1805,18.05,-581.95,-0.0623
1806,18.06,-581.94,-0.0606
1807,18.07,-581.93,-0.0629
1808,18.08,-581.92,-0.0636
1809,18.09,-581.91,-0.0648
1810,18.1,-581.9,-0.0667
1811,18.11,-581.89,-0.0676
1812,18.12,-581.88,-0.0694
1813,18.13,-581.87,-0.069
1814,18.14,-581.86,-0.0717
1815,18.15,-581.85,-0.0522
1816,18.16,-581.84,-0.0532
1817,18.17,-581.83,-0.0436
1818,18.18,-581.82,-0.03
1819,18.19,-581.81,-0.0375
1820,18.2,-581.8,-0.0289
1821,18.21,-581.79,-0.0156
1822,18.22,-581.78,-0.0187
1823,18.23,-581.77,-0.0195
1824,18.24,-581.76,0.0042
1825,18.25,-581.75,0.0238
1826,18.26,-581.74,0.0645
1827,18.27,-581.73,0.1087
1828,18.28,-581.72,0.118
1829,18.29,-581.71,0.1215
1830,18.3,-581.7,0.1021
1831,18.31,-581.69,0.0915
1832,18.32,-581.68,0.0729
1833,18.33,-581.67,0.0642
1834,18.34,-581.66,0.0298
1835,18.35,-581.65,0.0145
1836,18.36,-581.64,0.0158
1837,18.37,-581.63,0.0239
1838,18.38,-581.62,0.0385
1839,18.39,-581.61,0.0149
1840,18.4,-581.6,0.014
1841,18.41,-581.59,0.0134
1842,18.42,-581.58,0.0118
1843,18.43,-581.57,0.0121
1844,18.44,-581.56,0.0077
1845,18.45,-581.55,0.0186
1846,18.46,-581.54,0.03
1847,18.47,-581.53,0.0089
1848,18.48,-581.52,0.0274
1849,18.49,-581.51,0.0172
1850,18.5,-581.5,-0.0121
1851,18.51,-581.49,-0.0127
1852,18.52,-581.48,0.0037
1853,18.53,-581.47,-0.0254
1854,18.54,-581.46,-0.0329
1855,18.55,-581.45,-0.03
1856,18.56,-581.44,-0.0298
1857,18.57,-581.43,-0.0275
1858,18.58,-581.42,-0.0276
1859,18.59,-581.41,-0.0237
1860,18.6,-581.4,-0.0287
1861,18.61,-581.39,-0.0444
1862,18.62,-581.38,-0.0251
1863,18.63,-581.37,0.0056
1864,18.64,-581.36,0.026
1865,18.65,-581.35,0.0368
1866,18.66,-581.34,0.0684
1867,18.67,-581.33,0.0753
1868,18.68,-581.32,0.0735
1869,18.69,-581.31,0.0477
1870,18.7,-581.3,0.0409
1871,18.71,-581.29,0.0261
1872,18.72,-581.28,-0.0268
1873,18.73,-581.27,-0.0535
1874,18.74,-581.26,-0.0461
1875,18.75,-581.25,-0.0456
1876,18.76,-581.24,-0.0409
1877,18.77,-581.23,-0.0411
1878,18.78,-581.22,-0.0357
1879,18.79,-581.21,-0.0319
1880,18.8,-581.2,0.4754
1881,18.81,-581.19,1.5992
1882,18.82,-581.18,1.6713
1883,18.83,-581.17,0.1037
1884,18.84,-581.16,-0.7633
1885,18.85,-581.15,-0.5283
1886,18.86,-581.14,-0.277
1887,18.87,-581.13,-0.1328
1888,18.88,-581.12,-0.0829
1889,18.89,-581.11,-0.0475
1890,18.9,-581.1,-0.0446
1891,18.91,-581.09,-0.0402
1892,18.92,-581.08,-0.0528
1893,18.93,-581.07,-0.058
1894,18.94,-581.06,-0.0441
1895,18.95,-581.05,-0.0507
1896,18.96,-581.04,-0.0501
1897,18.97,-581.03,-0.0521
1898,18.98,-581.02,-0.0546
1899,18.99,-581.01,-0.0515
1900,19,-581,-0.041
1901,19.01,-580.99,-0.0606
1902,19.02,-580.98,-0.0458
1903,19.03,-580.97,-0.034
1904,19.04,-580.96,-0.0299
1905,19.05,-580.95,-0.034
1906,19.06,-580.94,-0.0225
1907,19.07,-580.93,-0.0236
1908,19.08,-580.92,-0.0084
1909,19.09,-580.91,0.0014
1910,19.1,-580.9,0.0101
1911,19.11,-580.89,0.044
1912,19.12,-580.88,0.0703
1913,19.13,-580.87,0.1027
1914,19.14,-580.86,0.128
1915,19.15,-580.85,0.113
1916,19.16,-580.84,0.1023
1917,19.17,-580.83,0.0755
1918,19.18,-580.82,0.0478
1919,19.19,-580.81,0.0562
1920,19.2,-580.8,0.0423
1921,19.21,-580.79,0.0297
1922,19.22,-580.78,0.0266
1923,19.23,-580.77,0.0335
1924,19.24,-580.76,0.04
1925,19.25,-580.75,0.0365
1926,19.26,-580.74,0.0359
1927,19.27,-580.73,0.038
1928,19.28,-580.72,0.0503
1929,19.29,-580.71,0.0304
1930,19.3,-580.7,0.0353
1931,19.31,-580.69,0.0459
1932,19.32,-580.68,0.0354
1933,19.33,-580.67,0.0189
1934,19.34,-580.66,0.0226
1935,19.35,-580.65,0.0007
1936,19.36,-580.64,0.0025
1937,19.37,-580.63,-0.01
1938,19.38,-580.62,-0.021
1939,19.39,-580.61,-0.0194
1940,19.4,-580.6,-0.0122
1941,19.41,-580.59,-0.0002
1942,19.42,-580.58,-0.0467
1943,19.43,-580.57,-0.0563
1944,19.44,-580.56,-0.0459
1945,19.45,-580.55,-0.0265
1946,19.46,-580.54,-0.0415
1947,19.47,-580.53,-0.0488
1948,19.48,-580.52,-0.0364
1949,19.49,-580.51,-0.0205
1950,19.5,-580.5,-0.0057
1951,19.51,-580.49,0.0257
1952,19.52,-580.48,0.0249
1953,19.53,-580.47,0.0394
1954,19.54,-580.46,0.0679
1955,19.55,-580.45,0.0784
1956,19.56,-580.44,0.0489
1957,19.57,-580.43,0.0535
1958,19.58,-580.42,0.0409
1959,19.59,-580.41,-0.0171
1960,19.6,-580.4,-0.0517
1961,19.61,-580.39,-0.0385
1962,19.62,-580.38,-0.02
1963,19.63,-580.37,-0.0427
1964,19.64,-580.36,-0.0329
1965,19.65,-580.35,-0.0219
1966,19.66,-580.34,-0.0269
1967,19.67,-580.33,0.4286
1968,19.68,-580.32,1.5289
1969,19.69,-580.31,1.74
1970,19.7,-580.3,0.2237
1971,19.71,-580.29,-0.7221
1972,19.72,-580.28,-0.5377
1973,19.73,-580.27,-0.3118
1974,19.74,-580.26,-0.1517
1975,19.75,-580.25,-0.087
1976,19.76,-580.24,-0.0375
1977,19.77,-580.23,-0.0446
1978,19.78,-580.22,-0.0412
1979,19.79,-580.21,-0.0424
1980,19.8,-580.2,-0.0479
1981,19.81,-580.19,-0.0356
1982,19.82,-580.18,-0.0416
1983,19.83,-580.17,-0.0557
1984,19.84,-580.16,-0.0526
1985,19.85,-580.15,-0.0582
1986,19.86,-580.14,-0.0571
1987,19.87,-580.13,-0.0617
1988,19.88,-580.12,-0.0338
1989,19.89,-580.11,-0.0327
1990,19.9,-580.1,-0.0501
1991,19.91,-580.09,-0.0452
1992,19.92,-580.08,-0.0306
1993,19.93,-580.07,-0.0329
1994,19.94,-580.06,-0.0345
1995,19.95,-580.05,-0.0389
1996,19.96,-580.04,-0.0355
1997,19.97,-580.03,-0.014
1998,19.98,-580.02,0.0226
1999,19.99,-580.01,0.0544
2000,20,-580,0.0701
2001,20.01,-579.99,0.1
2002,20.02,-579.98,0.088
2003,20.03,-579.97,0.0786
2004,20.04,-579.96,0.0711
2005,20.05,-579.95,0.0501
2006,20.06,-579.94,0.0508
2007,20.07,-579.93,0.0291
2008,20.08,-579.92,0.0207
2009,20.09,-579.91,0.0332
2010,20.1,-579.9,0.0297
2011,20.11,-579.89,0.0155
2012,20.12,-579.88,0.0266
2013,20.13,-579.87,0.0396
2014,20.14,-579.86,0.037
2015,20.15,-579.85,0.0362
2016,20.16,-579.84,0.0347
2017,20.17,-579.83,0.0336
2018,20.18,-579.82,0.0326
2019,20.19,-579.81,0.0144
2020,20.2,-579.8,0.009
2021,20.21,-579.79,0.013
2022,20.22,-579.78,-0.0053
2023,20.23,-579.77,-0.0115
2024,20.24,-579.76,-0.0108
2025,20.25,-579.75,-0.008
2026,20.26,-579.74,-0.0238
2027,20.27,-579.73,-0.0297
2028,20.28,-579.72,-0.0282
2029,20.29,-579.71,-0.0248
2030,20.3,-579.7,-0.0405
2031,20.31,-579.69,-0.0438
2032,20.32,-579.68,-0.0221
2033,20.33,-579.67,-0.0203
2034,20.34,-579.66,-0.033
2035,20.35,-579.65,-0.0235
2036,20.36,-579.64,-0.0057
2037,20.37,-579.63,0.0403
2038,20.38,-579.62,0.0466
2039,20.39,-579.61,0.071
2040,20.4,-579.6,0.088
2041,20.41,-579.59,0.0641
2042,20.42,-579.58,0.0384
2043,20.43,-579.57,0.0394
2044,20.44,-579.56,0.028
2045,20.45,-579.55,-0.0093
2046,20.46,-579.54,-0.0469
2047,20.47,-579.53,-0.0401
2048,20.48,-579.52,-0.0347
2049,20.49,-579.51,-0.0577
2050,20.5,-579.5,-0.0332
2051,20.51,-579.49,-0.0325
2052,20.52,-579.48,-0.0242
2053,20.53,-579.47,0.494
2054,20.54,-579.46,1.6096
2055,20.55,-579.45,1.7365
2056,20.56,-579.44,0.1811
2057,20.57,-579.43,-0.7497
2058,20.58,-579.42,-0.5227
2059,20.59,-579.41,-0.2805
2060,20.6,-579.4,-0.1384
2061,20.61,-579.39,-0.0873
2062,20.62,-579.38,-0.0453
2063,20.63,-579.37,-0.0478
2064,20.64,-579.36,-0.0485
2065,20.65,-579.35,-0.0479
2066,20.66,-579.34,-0.0667
2067,20.67,-579.33,-0.0722
2068,20.68,-579.32,-0.0546
2069,20.69,-579.31,-0.0558
2070,20.7,-579.3,-0.0725
2071,20.71,-579.29,-0.0648
2072,20.72,-579.28,-0.0582
2073,20.73,-579.27,-0.0663
2074,20.74,-579.26,-0.0481
2075,20.75,-579.25,-0.0458
2076,20.76,-579.24,-0.0415
2077,20.77,-579.23,-0.0255
2078,20.78,-579.22,-0.0306
2079,20.79,-579.21,-0.0289
2080,20.8,-579.2,-0.0067
2081,20.81,-579.19,0.0099
2082,20.82,-579.18,0.002
2083,20.83,-579.17,0.0409
2084,20.84,-579.16,0.0426
2085,20.85,-579.15,0.0884
2086,20.86,-579.14,0.1388
2087,20.87,-579.13,0.1313
2088,20.88,-579.12,0.1145
2089,20.89,-579.11,0.1028
2090,20.9,-579.1,0.0719
2091,20.91,-579.09,0.0498
2092,20.92,-579.08,0.0388
2093,20.93,-579.07,0.0226
2094,20.94,-579.06,0.0233
2095,20.95,-579.05,0.0234
2096,20.96,-579.04,0.0169
2097,20.97,-579.03,-0.0023
2098,20.98,-579.02,0.0147
2099,20.99,-579.01,0.023
2100,21,-579,0.0145
2101,21.01,-578.99,0.0311
2102,21.02,-578.98,0.0229
2103,21.03,-578.97,0.033
2104,21.04,-578.96,0.0312
2105,21.05,-578.95,0.0116
2106,21.06,-578.94,0.0149
2107,21.07,-578.93,0.0139
2108,21.08,-578.92,0.0087
2109,21.09,-578.91,-0.0096
2110,21.1,-578.9,-0.0043
2111,21.11,-578.89,-0.0252
2112,21.12,-578.88,-0.025
2113,21.13,-578.87,-0.0257
2114,21.14,-578.86,-0.022
2115,21.15,-578.85,-0.0422
2116,21.16,-578.84,-0.0381
2117,21.17,-578.83,-0.0508
2118,21.18,-578.82,-0.0454
2119,21.19,-578.81,-0.0165
2120,21.2,-578.8,-0.0348
2121,21.21,-578.79,-0.0307
2122,21.22,-578.78,-0.017
2123,21.23,-578.77,0.0014
2124,21.24,-578.76,0.0339
2125,21.25,-578.75,0.0494
2126,21.26,-578.74,0.063
2127,21.27,-578.73,0.0644
2128,21.28,-578.72,0.0619
2129,21.29,-578.71,0.0463
2130,21.3,-578.7,0.0537
2131,21.31,-578.69,0.0159
2132,21.32,-578.68,-0.0372
2133,21.33,-578.67,-0.0651
2134,21.34,-578.66,-0.0571
2135,21.35,-578.65,-0.0589
2136,21.36,-578.64,-0.0494
2137,21.37,-578.63,-0.0297
2138,21.38,-578.62,-0.0478
2139,21.39,-578.61,0.0297
2140,21.4,-578.6,0.7423
2141,21.41,-578.59,1.8156
2142,21.42,-578.58,1.4346
2143,21.43,-578.57,-0.2339
2144,21.44,-578.56,-0.7861
2145,21.45,-578.55,-0.4489
2146,21.46,-578.54,-0.1943
2147,21.47,-578.53,-0.1157
2148,21.48,-578.52,-0.0796
2149,21.49,-578.51,-0.0494
2150,21.5,-578.5,-0.0441
2151,21.51,-578.49,-0.0437
2152,21.52,-578.48,-0.0497
2153,21.53,-578.47,-0.0367
2154,21.54,-578.46,-0.0411
2155,21.55,-578.45,-0.0567
2156,21.56,-578.44,-0.0727
2157,21.57,-578.43,-0.0751
2158,21.58,-578.42,-0.0766
2159,21.59,-578.41,-0.0595
2160,21.6,-578.4,-0.0586
2161,21.61,-578.39,-0.0598
2162,21.62,-578.38,-0.0629
2163,21.63,-578.37,-0.0437
2164,21.64,-578.36,-0.0462
2165,21.65,-578.35,-0.0353
2166,21.66,-578.34,-0.0256
2167,21.67,-578.33,-0.0094
2168,21.68,-578.32,0.0128
2169,21.69,-578.31,0.0075
2170,21.7,-578.3,0.0204
2171,21.71,-578.29,0.0673
2172,21.72,-578.28,0.1096
2173,21.73,-578.27,0.1348
2174,21.74,-578.26,0.13
2175,21.75,-578.25,0.0966
2176,21.76,-578.24,0.0975
2177,21.77,-578.23,0.0495
2178,21.78,-578.22,0.0443
2179,21.79,-578.21,0.0529
2180,21.8,-578.2,0.0282
2181,21.81,-578.19,0.0319
2182,21.82,-578.18,0.0284
2183,21.83,-578.17,0.0311
2184,21.84,-578.16,0.0279
2185,21.85,-578.15,0.032
2186,21.86,-578.14,0.0134
2187,21.87,-578.13,0.0243
2188,21.88,-578.12,0.0283
2189,21.89,-578.11,0.0258
2190,21.9,-578.1,0.0255
2191,21.91,-578.09,0.043
2192,21.92,-578.08,0.0422
2193,21.93,-578.07,0.011
2194,21.94,-578.06,0.0036
2195,21.95,-578.05,0.0032
2196,21.96,-578.04,0.0059
2197,21.97,-578.03,-0.0056
2198,21.98,-578.02,-0.0188
2199,21.99,-578.01,-0.0137
2200,22,-578,-0.0167
2201,22.01,-577.99,-0.0114
2202,22.02,-577.98,-0.0276
2203,22.03,-577.97,-0.0329
2204,22.04,-577.96,-0.0299
2205,22.05,-577.95,-0.0287
2206,22.06,-577.94,-0.0282
2207,22.07,-577.93,-0.0239
2208,22.08,-577.92,-0.0297
2209,22.09,-577.91,-0.043
2210,22.1,-577.9,-0.0396
2211,22.11,-577.89,-0.0348
2212,22.12,-577.88,-0.0121
2213,22.13,-577.87,0.0303
2214,22.14,-577.86,0.055
2215,22.15,-577.85,0.0698
2216,22.16,-577.84,0.0799
2217,22.17,-577.83,0.0714
2218,22.18,-577.82,0.0461
2219,22.19,-577.81,0.0616
2220,22.2,-577.8,0.0402
2221,22.21,-577.79,-0.0125
2222,22.22,-577.78,-0.0435
2223,22.23,-577.77,-0.0459
2224,22.24,-577.76,-0.0403
2225,22.25,-577.75,-0.0429
2226,22.26,-577.74,-0.0222
2227,22.27,-577.73,-0.0197
2228,22.28,-577.72,0.0327
2229,22.29,-577.71,0.7608
2230,22.3,-577.7,1.7949
2231,22.31,-577.69,1.3673
2232,22.32,-577.68,-0.2797
2233,22.33,-577.67,-0.7784
2234,22.34,-577.66,-0.4222
2235,22.35,-577.65,-0.1738
2236,22.36,-577.64,-0.0879
2237,22.37,-577.63,-0.0519
2238,22.38,-577.62,-0.0396
2239,22.39,-577.61,-0.0436
2240,22.4,-577.6,-0.041
2241,22.41,-577.59,-0.0426
2242,22.42,-577.58,-0.0417
2243,22.43,-577.57,-0.0427
2244,22.44,-577.56,-0.0424
2245,22.45,-577.55,-0.0438
2246,22.46,-577.54,-0.042
2247,22.47,-577.53,-0.0454
2248,22.48,-577.52,-0.0367
2249,22.49,-577.51,-0.0223
2250,22.5,-577.5,-0.022
2251,22.51,-577.49,-0.0271
2252,22.52,-577.48,-0.0369
2253,22.53,-577.47,-0.0233
2254,22.54,-577.46,-0.0086
2255,22.55,-577.45,-0.02
2256,22.56,-577.44,-0.02
2257,22.57,-577.43,0.0073
2258,22.58,-577.42,0.0334
2259,22.59,-577.41,0.0523
2260,22.6,-577.4,0.0718
2261,22.61,-577.39,0.1312
2262,22.62,-577.38,0.1481
2263,22.63,-577.37,0.1757
2264,22.64,-577.36,0.1469
2265,22.65,-577.35,0.1345
2266,22.66,-577.34,0.1205
2267,22.67,-577.33,0.0927
2268,22.68,-577.32,0.0937
2269,22.69,-577.31,0.0846
2270,22.7,-577.3,0.0548
2271,22.71,-577.29,0.0543
2272,22.72,-577.28,0.0686
2273,22.73,-577.27,0.0472
2274,22.74,-577.26,0.0562
2275,22.75,-577.25,0.045
2276,22.76,-577.24,0.0611
2277,22.77,-577.23,0.0137
2278,22.78,-577.22,0.0262
2279,22.79,-577.21,0.0743
2280,22.8,-577.2,0.0452
2281,22.81,-577.19,0.0525
2282,22.82,-577.18,0.0483
2283,22.83,-577.17,0.0165
2284,22.84,-577.16,0.0022
2285,22.85,-577.15,-0.011
2286,22.86,-577.14,-0.0086
2287,22.87,-577.13,-0.0104
2288,22.88,-577.12,-0.0292
2289,22.89,-577.11,-0.0258
2290,22.9,-577.1,-0.0282
2291,22.91,-577.09,-0.0216
2292,22.92,-577.08,-0.0324
2293,22.93,-577.07,-0.0322
2294,22.94,-577.06,-0.0308
2295,22.95,-577.05,-0.0427
2296,22.96,-577.04,-0.0331
2297,22.97,-577.03,-0.0452
2298,22.98,-577.02,-0.0568
2299,22.99,-577.01,-0.0127
2300,23,-577,0.0113
2301,23.01,-576.99,0.0176
2302,23.02,-576.98,0.0644
2303,23.03,-576.97,0.0796
2304,23.04,-576.96,0.0682
2305,23.05,-576.95,0.0244
2306,23.06,-576.94,0.0337
2307,23.07,-576.93,0.028
2308,23.08,-576.92,-0.011
2309,23.09,-576.91,-0.0358
2310,23.1,-576.9,-0.0465
2311,23.11,-576.89,-0.0552
2312,23.12,-576.88,-0.047
2313,23.13,-576.87,-0.0193
2314,23.14,-576.86,-0.0219
2315,23.15,-576.85,-0.0094
2316,23.16,-576.84,0.5954
2317,23.17,-576.83,1.6168
2318,23.18,-576.82,1.4273
2319,23.19,-576.81,-0.1423
2320,23.2,-576.8,-0.7632
2321,23.21,-576.79,-0.4483
2322,23.22,-576.78,-0.2095
2323,23.23,-576.77,-0.1088
2324,23.24,-576.76,-0.0513
2325,23.25,-576.75,-0.0366
2326,23.26,-576.74,-0.0411
2327,23.27,-576.73,-0.0287
2328,23.28,-576.72,-0.0619
2329,23.29,-576.71,-0.0362
2330,23.3,-576.7,-0.0276
2331,23.31,-576.69,-0.0532
2332,23.32,-576.68,-0.0283
2333,23.33,-576.67,-0.0286
2334,23.34,-576.66,-0.0453
2335,23.35,-576.65,-0.047
2336,23.36,-576.64,-0.0669
2337,23.37,-576.63,-0.0466
2338,23.38,-576.62,-0.0618
2339,23.39,-576.61,-0.0471
2340,23.4,-576.6,-0.0143
2341,23.41,-576.59,-0.0398
2342,23.42,-576.58,-0.0235
2343,23.43,-576.57,-0.0491
2344,23.44,-576.56,-0.0105
2345,23.45,-576.55,-0.0218
2346,23.46,-576.54,-0.0038
2347,23.47,-576.53,0.0129
2348,23.48,-576.52,0.0515
2349,23.49,-576.51,0.0971
2350,23.5,-576.5,0.0845
2351,23.51,-576.49,0.1036
2352,23.52,-576.48,0.0792
2353,23.53,-576.47,0.0828
2354,23.54,-576.46,0.0599
2355,23.55,-576.45,0.0393
2356,23.56,-576.44,0.0445
2357,23.57,-576.43,0.03
2358,23.58,-576.42,0.0115
2359,23.59,-576.41,0.0242
2360,23.6,-576.4,0.0177
2361,23.61,-576.39,0.0111
2362,23.62,-576.38,0.0124
2363,23.63,-576.37,-0.0045
2364,23.64,-576.36,0.03
2365,23.65,-576.35,0.0282
2366,23.66,-576.34,0.0146
2367,23.67,-576.33,0.0173
2368,23.68,-576.32,0.0146
2369,23.69,-576.31,0.0153
2370,23.7,-576.3,0.0139
2371,23.71,-576.29,-0.0028
2372,23.72,-576.28,-0.0118
2373,23.73,-576.27,-0.0279
2374,23.74,-576.26,-0.0344
2375,23.75,-576.25,-0.0682
2376,23.76,-576.24,0.0252
2377,23.77,-576.23,0.0222
2378,23.78,-576.22,-0.0336
2379,23.79,-576.21,-0.0147
2380,23.8,-576.2,-0.0245
2381,23.81,-576.19,-0.0157
2382,23.82,-576.18,-0.022
2383,23.83,-576.17,0.0223
2384,23.84,-576.16,0.0441
2385,23.85,-576.15,0.0512
2386,23.86,-576.14,0.0957
2387,23.87,-576.13,0.1118
2388,23.88,-576.12,0.0735
2389,23.89,-576.11,0.0574
2390,23.9,-576.1,0.0631
2391,23.91,-576.09,0.0077
2392,23.92,-576.08,-0.0527
2393,23.93,-576.07,-0.0682
2394,23.94,-576.06,-0.0493
2395,23.95,-576.05,-0.0392
2396,23.96,-576.04,-0.0451
2397,23.97,-576.03,-0.034
2398,23.98,-576.02,-0.0655
2399,23.99,-576.01,0.2197
2400,24,-576,1.2035
2401,24.01,-575.99,1.6802
2402,24.02,-575.98,0.4219
2403,24.03,-575.97,-0.7275
2404,24.04,-575.96,-0.6297
2405,24.05,-575.95,-0.3387
2406,24.06,-575.94,-0.1772
2407,24.07,-575.93,-0.1135
2408,24.08,-575.92,-0.0587
2409,24.09,-575.91,-0.0504
2410,24.1,-575.9,-0.0502
2411,24.11,-575.89,-0.0038
2412,24.12,-575.88,-0.0529
2413,24.13,-575.87,-0.0544
2414,24.14,-575.86,-0.0441
2415,24.15,-575.85,-0.0299
2416,24.16,-575.84,-0.0282
2417,24.17,-575.83,-0.0281
2418,24.18,-575.82,-0.0447
2419,24.19,-575.81,-0.052
2420,24.2,-575.8,-0.0267
2421,24.21,-575.79,-0.0086
2422,24.22,-575.78,-0.0311
2423,24.23,-575.77,-0.0317
2424,24.24,-575.76,-0.0235
2425,24.25,-575.75,-0.0307
2426,24.26,-575.74,-0.0168
2427,24.27,-575.73,-0.0056
2428,24.28,-575.72,-0.002
2429,24.29,-575.71,-0.0002
2430,24.3,-575.7,0.0438
2431,24.31,-575.69,0.0727
2432,24.32,-575.68,0.1171
2433,24.33,-575.67,0.1277
2434,24.34,-575.66,0.1273
2435,24.35,-575.65,0.1197
2436,24.36,-575.64,0.1061
2437,24.37,-575.63,0.08
2438,24.38,-575.62,0.0544
2439,24.39,-575.61,0.0403
2440,24.4,-575.6,0.0376
2441,24.41,-575.59,0.06
2442,24.42,-575.58,0.0366
2443,24.43,-575.57,0.0342
2444,24.44,-575.56,0.0529
2445,24.45,-575.55,0.0512
2446,24.46,-575.54,0.0505
2447,24.47,-575.53,0.0494
2448,24.48,-575.52,0.0509
2449,24.49,-575.51,0.075
2450,24.5,-575.5,0.0336
2451,24.51,-575.49,0.0275
2452,24.52,-575.48,0.0112
2453,24.53,-575.47,-0.0085
2454,24.54,-575.46,-0.005
2455,24.55,-575.45,-0.0179
2456,24.56,-575.44,0.0111
2457,24.57,-575.43,-0.0028
2458,24.58,-575.42,-0.0256
2459,24.59,-575.41,-0.0343
2460,24.6,-575.4,-0.0665
2461,24.61,-575.39,-0.0301
2462,24.62,-575.38,-0.0382
2463,24.63,-575.37,-0.0386
2464,24.64,-575.36,-0.0209
2465,24.65,-575.35,-0.0292
2466,24.66,-575.34,0.024
2467,24.67,-575.33,0.0399
2468,24.68,-575.32,0.0611
2469,24.69,-575.31,0.0726
2470,24.7,-575.3,0.1095
2471,24.71,-575.29,0.0615
2472,24.72,-575.28,0.0587
2473,24.73,-575.27,0.0518
2474,24.74,-575.26,-0.02
2475,24.75,-575.25,-0.0621
2476,24.76,-575.24,-0.0668
2477,24.77,-575.23,-0.0414
2478,24.78,-575.22,-0.0601
2479,24.79,-575.21,-0.0507
2480,24.8,-575.2,-0.0302
2481,24.81,-575.19,-0.02
2482,24.82,-575.18,0.6508
2483,24.83,-575.17,1.6078
2484,24.84,-575.16,1.2125
2485,24.85,-575.15,-0.3053
2486,24.86,-575.14,-0.8173
2487,24.87,-575.13,-0.5233
2488,24.88,-575.12,-0.3152
2489,24.89,-575.11,-0.2178
2490,24.9,-575.1,-0.1464
2491,24.91,-575.09,-0.0848
2492,24.92,-575.08,-0.0898
2493,24.93,-575.07,-0.0712
2494,24.94,-575.06,-0.0777
2495,24.95,-575.05,-0.0881
2496,24.96,-575.04,-0.0914
2497,24.97,-575.03,-0.1162
2498,24.98,-575.02,-0.097
2499,24.99,-575.01,-0.0779
2500,25,-575,-0.0712
2501,25.01,-574.99,-0.0568
2502,25.02,-574.98,-0.0631
2503,25.03,-574.97,-0.0624
2504,25.04,-574.96,-0.0693
2505,25.05,-574.95,-0.0594
2506,25.06,-574.94,-0.0497
2507,25.07,-574.93,-0.0567
2508,25.08,-574.92,-0.0565
2509,25.09,-574.91,-0.0632
2510,25.1,-574.9,-0.0498
2511,25.11,-574.89,-0.0427
2512,25.12,-574.88,-0.0042
2513,25.13,-574.87,0.0159
2514,25.14,-574.86,0.0533
2515,25.15,-574.85,0.0835
2516,25.16,-574.84,0.0759
2517,25.17,-574.83,0.0858
2518,25.18,-574.82,0.0953
2519,25.19,-574.81,0.0369
2520,25.2,-574.8,0.0439
2521,25.21,-574.79,0.0453
2522,25.22,-574.78,0.0247
2523,25.23,-574.77,0.0334
2524,25.24,-574.76,0.0369
2525,25.25,-574.75,0.0331
2526,25.26,-574.74,0.0344
2527,25.27,-574.73,0.0311
2528,25.28,-574.72,0.0361
2529,25.29,-574.71,0.054
2530,25.3,-574.7,0.0333
2531,25.31,-574.69,0.0104
2532,25.32,-574.68,0.0271
2533,25.33,-574.67,0.0269
2534,25.34,-574.66,0.0144
2535,25.35,-574.65,-0.0003
2536,25.36,-574.64,-0.0054
2537,25.37,-574.63,-0.0013
2538,25.38,-574.62,-0.0161
2539,25.39,-574.61,-0.0094
2540,25.4,-574.6,-0.0154
2541,25.41,-574.59,-0.0399
2542,25.42,-574.58,-0.0502
2543,25.43,-574.57,-0.0255
2544,25.44,-574.56,0.0003
2545,25.45,-574.55,0.029
2546,25.46,-574.54,0.0411
2547,25.47,-574.53,0.0564
2548,25.48,-574.52,0.0704
2549,25.49,-574.51,0.08
2550,25.5,-574.5,0.0364
2551,25.51,-574.49,0.0247
2552,25.52,-574.48,0.0089
2553,25.53,-574.47,-0.0286
2554,25.54,-574.46,-0.0623
2555,25.55,-574.45,-0.0663
2556,25.56,-574.44,-0.0806
2557,25.57,-574.43,-0.0806
2558,25.58,-574.42,-0.0629
2559,25.59,-574.41,-0.0559
2560,25.6,-574.4,-0.0959
2561,25.61,-574.39,0.1632
2562,25.62,-574.38,1.1231
2563,25.63,-574.37,1.7771
2564,25.64,-574.36,0.6047
2565,25.65,-574.35,-0.6704
2566,25.66,-574.34,-0.665
2567,25.67,-574.33,-0.402
2568,25.68,-574.32,-0.2059
2569,25.69,-574.31,-0.1376
2570,25.7,-574.3,-0.0856
2571,25.71,-574.29,-0.0928
2572,25.72,-574.28,-0.0841
2573,25.73,-574.27,-0.0717
2574,25.74,-574.26,-0.0752
2575,25.75,-574.25,-0.077
2576,25.76,-574.24,-0.0781
2577,25.77,-574.23,-0.0834
2578,25.78,-574.22,-0.0691
2579,25.79,-574.21,-0.0642
2580,25.8,-574.2,-0.068
2581,25.81,-574.19,-0.0709
2582,25.82,-574.18,-0.0592
2583,25.83,-574.17,-0.0517
2584,25.84,-574.16,-0.0611
2585,25.85,-574.15,-0.0491
2586,25.86,-574.14,-0.0416
2587,25.87,-574.13,-0.011
2588,25.88,-574.12,-0.0046
2589,25.89,-574.11,-0.0134
2590,25.9,-574.1,0.0036
2591,25.91,-574.09,0.0054
2592,25.92,-574.08,0.0107
2593,25.93,-574.07,0.064
2594,25.94,-574.06,0.0957
2595,25.95,-574.05,0.0984
2596,25.96,-574.04,0.0909
2597,25.97,-574.03,0.0609
2598,25.98,-574.02,0.0487
2599,25.99,-574.01,0.049
2600,26,-574,0.0207
2601,26.01,-573.99,0.0045
2602,26.02,-573.98,0.0059
2603,26.03,-573.97,0.0038
2604,26.04,-573.96,0.0045
2605,26.05,-573.95,0.0029
2606,26.06,-573.94,0.0042
2607,26.07,-573.93,0.001
2608,26.08,-573.92,0.0079
2609,26.09,-573.91,0.0238
2610,26.1,-573.9,0.0202
2611,26.11,-573.89,0.0043
2612,26.12,-573.88,-0.0027
2613,26.13,-573.87,0.0105
2614,26.14,-573.86,0.0231
2615,26.15,-573.85,0.0171
2616,26.16,-573.84,0.0007
2617,26.17,-573.83,-0.0003
2618,26.18,-573.82,0.0022
2619,26.19,-573.81,-0.0176
2620,26.2,-573.8,-0.0169
2621,26.21,-573.79,-0.0199
2622,26.22,-573.78,-0.0006
2623,26.23,-573.77,-0.012
2624,26.24,-573.76,0.0163
2625,26.25,-573.75,0.0538
2626,26.26,-573.74,0.0449
2627,26.27,-573.73,0.0743
2628,26.28,-573.72,0.1134
2629,26.29,-573.71,0.1074
2630,26.3,-573.7,0.0641
2631,26.31,-573.69,0.0374
2632,26.32,-573.68,0.0295
2633,26.33,-573.67,-0.0239
2634,26.34,-573.66,-0.0573
2635,26.35,-573.65,-0.0574
2636,26.36,-573.64,-0.0355
2637,26.37,-573.63,-0.0359
2638,26.38,-573.62,-0.0332
2639,26.39,-573.61,-0.0354
2640,26.4,-573.6,-0.0311
2641,26.41,-573.59,0.4612
2642,26.42,-573.58,1.5522
2643,26.43,-573.57,1.7266
2644,26.44,-573.56,0.212
2645,26.45,-573.55,-0.7621
2646,26.46,-573.54,-0.5534
2647,26.47,-573.53,-0.2748
2648,26.48,-573.52,-0.138
2649,26.49,-573.51,-0.0801
2650,26.5,-573.5,-0.0554
2651,26.51,-573.49,-0.0642
2652,26.52,-573.48,-0.0828
2653,26.53,-573.47,-0.0709
2654,26.54,-573.46,-0.0607
2655,26.55,-573.45,-0.0601
2656,26.56,-573.44,-0.0701
2657,26.57,-573.43,-0.0755
2658,26.58,-573.42,-0.061
2659,26.59,-573.41,-0.0655
2660,26.6,-573.4,-0.0655
2661,26.61,-573.39,-0.0564
2662,26.62,-573.38,-0.0418
2663,26.63,-573.37,-0.0656
2664,26.64,-573.36,-0.04
2665,26.65,-573.35,-0.0265
2666,26.66,-573.34,-0.0281
2667,26.67,-573.33,-0.013
2668,26.68,-573.32,-0.0022
2669,26.69,-573.31,0.009
2670,26.7,-573.3,0.0232
2671,26.71,-573.29,0.0297
2672,26.72,-573.28,0.0571
2673,26.73,-573.27,0.0993
2674,26.74,-573.26,0.1207
2675,26.75,-573.25,0.1263
2676,26.76,-573.24,0.0988
2677,26.77,-573.23,0.0745
2678,26.78,-573.22,0.0476
2679,26.79,-573.21,0.0234
2680,26.8,-573.2,0.0219
2681,26.81,-573.19,0.0215
2682,26.82,-573.18,0.0221
2683,26.83,-573.17,0.0032
2684,26.84,-573.16,0.0005
2685,26.85,-573.15,0.001
2686,26.86,-573.14,0.0009
2687,26.87,-573.13,0.0163
2688,26.88,-573.12,0.0013
2689,26.89,-573.11,-0.0014
2690,26.9,-573.1,0.0137
2691,26.91,-573.09,0.0219
2692,26.92,-573.08,0.0174
2693,26.93,-573.07,0.0222
2694,26.94,-573.06,0.0046
2695,26.95,-573.05,0.0148
2696,26.96,-573.04,0.0005
2697,26.97,-573.03,0.0023
2698,26.98,-573.02,-0.0113
2699,26.99,-573.01,-0.02
2700,27,-573,-0.0123
2701,27.01,-572.99,-0.0251
2702,27.02,-572.98,-0.0347
2703,27.03,-572.97,-0.0462
2704,27.04,-572.96,-0.0293
2705,27.05,-572.95,-0.0198
2706,27.06,-572.94,0.0281
2707,27.07,-572.93,0.0411
2708,27.08,-572.92,0.0454
2709,27.09,-572.91,0.0769
2710,27.1,-572.9,0.091
2711,27.11,-572.89,0.0684
2712,27.12,-572.88,0.0326
2713,27.13,-572.87,0.0303
2714,27.14,-572.86,-0.0114
2715,27.15,-572.85,-0.0565
2716,27.16,-572.84,-0.0556
2717,27.17,-572.83,-0.0527
2718,27.18,-572.82,-0.0484
2719,27.19,-572.81,-0.0485
2720,27.2,-572.8,-0.0405
2721,27.21,-572.79,-0.0481
2722,27.22,-572.78,0.189
2723,27.23,-572.77,1.1265
2724,27.24,-572.76,1.8262
2725,27.25,-572.75,0.7418
2726,27.26,-572.74,-0.635
2727,27.27,-572.73,-0.6826
2728,27.28,-572.72,-0.3523
2729,27.29,-572.71,-0.166
2730,27.3,-572.7,-0.0854
2731,27.31,-572.69,-0.0536
2732,27.32,-572.68,-0.0647
2733,27.33,-572.67,-0.0569
2734,27.34,-572.66,-0.0626
2735,27.35,-572.65,-0.0404
2736,27.36,-572.64,-0.0446
2737,27.37,-572.63,-0.072
2738,27.38,-572.62,-0.0853
2739,27.39,-572.61,-0.0773
2740,27.4,-572.6,-0.0696
2741,27.41,-572.59,-0.0759
2742,27.42,-572.58,-0.0581
2743,27.43,-572.57,-0.0677
2744,27.44,-572.56,-0.0558
2745,27.45,-572.55,-0.0458
2746,27.46,-572.54,-0.0308
2747,27.47,-572.53,-0.0256
2748,27.48,-572.52,-0.0227
2749,27.49,-572.51,-0.005
2750,27.5,-572.5,-0.0115
2751,27.51,-572.49,-0.0079
2752,27.52,-572.48,0.0109
2753,27.53,-572.47,0.0464
2754,27.54,-572.46,0.0849
2755,27.55,-572.45,0.0998
2756,27.56,-572.44,0.1125
2757,27.57,-572.43,0.1138
2758,27.58,-572.42,0.0984
2759,27.59,-572.41,0.0831
2760,27.6,-572.4,0.0501
2761,27.61,-572.39,0.0366
2762,27.62,-572.38,0.0355
2763,27.63,-572.37,0.0345
2764,27.64,-572.36,0.0101
2765,27.65,-572.35,0.0257
2766,27.66,-572.34,0.0206
2767,27.67,-572.33,0.0092
2768,27.68,-572.32,0.0129
2769,27.69,-572.31,0.0093
2770,27.7,-572.3,0.01
2771,27.71,-572.29,0.0076
2772,27.72,-572.28,0.0076
2773,27.73,-572.27,0.0062
2774,27.74,-572.26,0.007
2775,27.75,-572.25,0.0046
2776,27.76,-572.24,-0.0145
2777,27.77,-572.23,-0.0125
2778,27.78,-572.22,-0.0133
2779,27.79,-572.21,-0.0263
2780,27.8,-572.2,-0.0154
2781,27.81,-572.19,-0.0327
2782,27.82,-572.18,-0.025
2783,27.83,-572.17,-0.0325
2784,27.84,-572.16,-0.0386
2785,27.85,-572.15,-0.0267
2786,27.86,-572.14,0.0036
2787,27.87,-572.13,0.0387
2788,27.88,-572.12,0.041
2789,27.89,-572.11,0.0724
2790,27.9,-572.1,0.0832
2791,27.91,-572.09,0.0623
2792,27.92,-572.08,0.043
2793,27.93,-572.07,0.0389
2794,27.94,-572.06,-0.005
2795,27.95,-572.05,-0.0332
2796,27.96,-572.04,-0.0311
2797,27.97,-572.03,-0.0308
2798,27.98,-572.02,-0.0277
2799,27.99,-572.01,-0.0282
2800,28,-572,-0.001
2801,28.01,-571.99,-0.0252
2802,28.02,-571.98,0.0991
2803,28.03,-571.97,0.8772
2804,28.04,-571.96,1.8007
2805,28.05,-571.95,1.1366
2806,28.06,-571.94,-0.3983
2807,28.07,-571.93,-0.6875
2808,28.08,-571.92,-0.4397
2809,28.09,-571.91,-0.2195
2810,28.1,-571.9,-0.1048
2811,28.11,-571.89,-0.0478
2812,28.12,-571.88,-0.0302
2813,28.13,-571.87,-0.0325
2814,28.14,-571.86,-0.035
2815,28.15,-571.85,-0.0371
2816,28.16,-571.84,-0.0417
2817,28.17,-571.83,-0.0413
2818,28.18,-571.82,-0.0619
2819,28.19,-571.81,-0.07
2820,28.2,-571.8,-0.0511
2821,28.21,-571.79,-0.0569
2822,28.22,-571.78,-0.0571
2823,28.23,-571.77,-0.063
2824,28.24,-571.76,-0.059
2825,28.25,-571.75,-0.045
2826,28.26,-571.74,-0.0533
2827,28.27,-571.73,-0.0349
2828,28.28,-571.72,-0.0403
2829,28.29,-571.71,-0.0322
2830,28.3,-571.7,-0.023
2831,28.31,-571.69,-0.0293
2832,28.32,-571.68,-0.0058
2833,28.33,-571.67,0.013
2834,28.34,-571.66,0.0502
2835,28.35,-571.65,0.0819
2836,28.36,-571.64,0.0937
2837,28.37,-571.63,0.0951
2838,28.38,-571.62,0.073
2839,28.39,-571.61,0.0653
2840,28.4,-571.6,0.0334
2841,28.41,-571.59,0.0292
2842,28.42,-571.58,0.0259
2843,28.43,-571.57,0.0107
2844,28.44,-571.56,0.0148
2845,28.45,-571.55,0.0103
2846,28.46,-571.54,0.0122
2847,28.47,-571.53,0.0095
2848,28.48,-571.52,0.0107
2849,28.49,-571.51,0.0078
2850,28.5,-571.5,0.0093
2851,28.51,-571.49,0.0037
2852,28.52,-571.48,0.0132
2853,28.53,-571.47,0.0165
2854,28.54,-571.46,0.0001
2855,28.55,-571.45,0.0057
2856,28.56,-571.44,0.0017
2857,28.57,-571.43,0.006
2858,28.58,-571.42,-0.0096
2859,28.59,-571.41,-0.0173
2860,28.6,-571.4,-0.01
2861,28.61,-571.39,-0.0231
2862,28.62,-571.38,-0.032
2863,28.63,-571.37,-0.0298
2864,28.64,-571.36,-0.0255
2865,28.65,-571.35,-0.0289
2866,28.66,-571.34,0.0066
2867,28.67,-571.33,0.0396
2868,28.68,-571.32,0.0478
2869,28.69,-571.31,0.0669
2870,28.7,-571.3,0.0681
2871,28.71,-571.29,0.0657
2872,28.72,-571.28,0.0362
2873,28.73,-571.27,0.0533
2874,28.74,-571.26,-0.0087
2875,28.75,-571.25,-0.0597
2876,28.76,-571.24,-0.0578
2877,28.77,-571.23,-0.0556
2878,28.78,-571.22,-0.0519
2879,28.79,-571.21,-0.0506
2880,28.8,-571.2,-0.0456
2881,28.81,-571.19,-0.0564
2882,28.82,-571.18,0.0072
2883,28.83,-571.17,0.6676
2884,28.84,-571.16,1.7182
2885,28.85,-571.15,1.4351
2886,28.86,-571.14,-0.2009
2887,28.87,-571.13,-0.7929
2888,28.88,-571.12,-0.4655
2889,28.89,-571.11,-0.2208
2890,28.9,-571.1,-0.1172
2891,28.91,-571.09,-0.0708
2892,28.92,-571.08,-0.0657
2893,28.93,-571.07,-0.0688
2894,28.94,-571.06,-0.0688
2895,28.95,-571.05,-0.07
2896,28.96,-571.04,-0.0493
2897,28.97,-571.03,-0.0633
2898,28.98,-571.02,-0.0782
2899,28.99,-571.01,-0.0736
2900,29,-571,-0.0583
2901,29.01,-570.99,-0.0587
2902,29.02,-570.98,-0.0614
2903,29.03,-570.97,-0.0592
2904,29.04,-570.96,-0.0428
2905,29.05,-570.95,-0.0434
2906,29.06,-570.94,-0.0469
2907,29.07,-570.93,-0.0274
2908,29.08,-570.92,-0.0313
2909,29.09,-570.91,-0.0195
2910,29.1,-570.9,-0.0124
2911,29.11,-570.89,0.0065
2912,29.12,-570.88,0.0219
2913,29.13,-570.87,0.0397
2914,29.14,-570.86,0.0783
2915,29.15,-570.85,0.1137
2916,29.16,-570.84,0.1178
2917,29.17,-570.83,0.1152
2918,29.18,-570.82,0.0996
2919,29.19,-570.81,0.0711
2920,29.2,-570.8,0.066
2921,29.21,-570.79,0.0347
2922,29.22,-570.78,0.0247
2923,29.23,-570.77,0.025
2924,29.24,-570.76,0.024
2925,29.25,-570.75,0.0231
2926,29.26,-570.74,0.0231
2927,29.27,-570.73,0.021
2928,29.28,-570.72,0.0233
2929,29.29,-570.71,0.0109
2930,29.3,-570.7,-0.0036
2931,29.31,-570.69,0.0021
2932,29.32,-570.68,0.0177
2933,29.33,-570.67,0.018
2934,29.34,-570.66,0.0158
2935,29.35,-570.65,0.018
2936,29.36,-570.64,0.0106
2937,29.37,-570.63,-0.0055
2938,29.38,-570.62,-0.0014
2939,29.39,-570.61,-0.02
2940,29.4,-570.6,-0.022
2941,29.41,-570.59,-0.0174
2942,29.42,-570.58,-0.0323
2943,29.43,-570.57,-0.0387
2944,29.44,-570.56,-0.0341
2945,29.45,-570.55,-0.0352
2946,29.46,-570.54,-0.0309
2947,29.47,-570.53,-0.032
2948,29.48,-570.52,-0.018
2949,29.49,-570.51,0.0299
2950,29.5,-570.5,0.0381
2951,29.51,-570.49,0.0585
2952,29.52,-570.48,0.0684
2953,29.53,-570.47,0.0926
2954,29.54,-570.46,0.0612
2955,29.55,-570.45,0.0489
2956,29.56,-570.44,0.0301
2957,29.57,-570.43,-0.0266
2958,29.58,-570.42,-0.0391
2959,29.59,-570.41,-0.0525
2960,29.6,-570.4,-0.0514
2961,29.61,-570.39,-0.05
2962,29.62,-570.38,-0.032
2963,29.63,-570.37,-0.0396
2964,29.64,-570.36,-0.0256
2965,29.65,-570.35,0.4417
2966,29.66,-570.34,1.5106
2967,29.67,-570.33,1.6569
2968,29.68,-570.32,0.1533
2969,29.69,-570.31,-0.8122
2970,29.7,-570.3,-0.5585
2971,29.71,-570.29,-0.2691
2972,29.72,-570.28,-0.1092
2973,29.73,-570.27,-0.0768
2974,29.74,-570.26,-0.0615
2975,29.75,-570.25,-0.0692
2976,29.76,-570.24,-0.0593
2977,29.77,-570.23,-0.0459
2978,29.78,-570.22,-0.0499
2979,29.79,-570.21,-0.0499
2980,29.8,-570.2,-0.0532
2981,29.81,-570.19,-0.0539
2982,29.82,-570.18,-0.0566
2983,29.83,-570.17,-0.0562
2984,29.84,-570.16,-0.0604
2985,29.85,-570.15,-0.0503
2986,29.86,-570.14,-0.0378
2987,29.87,-570.13,-0.0454
2988,29.88,-570.12,-0.038
2989,29.89,-570.11,-0.0247
2990,29.9,-570.1,-0.0293
2991,29.91,-570.09,-0.0304
2992,29.92,-570.08,-0.0306
2993,29.93,-570.07,-0.0018
2994,29.94,-570.06,0.0015
2995,29.95,-570.05,0.0218
2996,29.96,-570.04,0.0623
2997,29.97,-570.03,0.0947
2998,29.98,-570.02,0.132
2999,29.99,-570.01,0.1313
3000,30,-570,0.1259
3001,30.01,-569.99,0.0945
3002,30.02,-569.98,0.0829
3003,30.03,-569.97,0.0658
3004,30.04,-569.96,0.0529
3005,30.05,-569.95,0.0365
3006,30.06,-569.94,0.0375
3007,30.07,-569.93,0.0355
3008,30.08,-569.92,0.0357
3009,30.09,-569.91,0.0343
3010,30.1,-569.9,0.0345
3011,30.11,-569.89,0.0315
3012,30.12,-569.88,0.0108
3013,30.13,-569.87,0.0121
3014,30.14,-569.86,0.0079
3015,30.15,-569.85,0.029
3016,30.16,-569.84,0.0229
3017,30.17,-569.83,0.0061
3018,30.18,-569.82,0.0084
3019,30.19,-569.81,0.0096
3020,30.2,-569.8,0.0042
3021,30.21,-569.79,-0.012
3022,30.22,-569.78,-0.0071
3023,30.23,-569.77,-0.0253
3024,30.24,-569.76,-0.0268
3025,30.25,-569.75,-0.0216
3026,30.26,-569.74,-0.0366
3027,30.27,-569.73,-0.041
3028,30.28,-569.72,-0.0358
3029,30.29,-569.71,-0.0265
3030,30.3,-569.7,0.0224
3031,30.31,-569.69,0.0562
3032,30.32,-569.68,0.0594
3033,30.33,-569.67,0.0723
3034,30.34,-569.66,0.096
3035,30.35,-569.65,0.0488
3036,30.36,-569.64,0.0254
3037,30.37,-569.63,0.0268
3038,30.38,-569.62,-0.0252
3039,30.39,-569.61,-0.0707
3040,30.4,-569.6,-0.0789
3041,30.41,-569.59,-0.0675
3042,30.42,-569.58,-0.0787
3043,30.43,-569.57,-0.071
3044,30.44,-569.56,-0.0647
3045,30.45,-569.55,-0.0743
3046,30.46,-569.54,0.1051
3047,30.47,-569.53,0.9851
3048,30.48,-569.52,1.761
3049,30.49,-569.51,0.8694
3050,30.5,-569.5,-0.5597
3051,30.51,-569.49,-0.717
3052,30.52,-569.48,-0.3885
3053,30.53,-569.47,-0.1881
3054,30.54,-569.46,-0.1097
3055,30.55,-569.45,-0.053
3056,30.56,-569.44,-0.051
3057,30.57,-569.43,-0.0505
3058,30.58,-569.42,-0.0489
3059,30.59,-569.41,-0.0549
3060,30.6,-569.4,-0.0682
3061,30.61,-569.39,-0.053
3062,30.62,-569.38,-0.0592
3063,30.63,-569.37,-0.0587
3064,30.64,-569.36,-0.0398
3065,30.65,-569.35,-0.0547
3066,30.66,-569.34,-0.0694
3067,30.67,-569.33,-0.0512
3068,30.68,-569.32,-0.0504
3069,30.69,-569.31,-0.0576
3070,30.7,-569.3,-0.0296
3071,30.71,-569.29,-0.0152
3072,30.72,-569.28,-0.0536
3073,30.73,-569.27,-0.0554
3074,30.74,-569.26,-0.0472
3075,30.75,-569.25,-0.0323
3076,30.76,-569.24,-0.0122
3077,30.77,-569.23,-0.012
3078,30.78,-569.22,0.0319
3079,30.79,-569.21,0.0736
3080,30.8,-569.2,0.0814
3081,30.81,-569.19,0.0932
3082,30.82,-569.18,0.0888
3083,30.83,-569.17,0.0668
3084,30.84,-569.16,0.0398
3085,30.85,-569.15,0.0427
3086,30.86,-569.14,0.0219
3087,30.87,-569.13,0.0136
3088,30.88,-569.12,0.0128
3089,30.89,-569.11,0.0115
3090,30.9,-569.1,0.0093
3091,30.91,-569.09,0.0116
3092,30.92,-569.08,0.0053
3093,30.93,-569.07,0.021
3094,30.94,-569.06,0.0139
3095,30.95,-569.05,0.023
3096,30.96,-569.04,0.0226
3097,30.97,-569.03,0.0014
3098,30.98,-569.02,0.0077
3099,30.99,-569.01,0.0029
3100,31,-569,0.0082
3101,31.01,-568.99,-0.0047
3102,31.02,-568.98,-0.0161
3103,31.03,-568.97,-0.012
3104,31.04,-568.96,-0.0132
3105,31.05,-568.95,-0.0095
3106,31.06,-568.94,-0.0217
3107,31.07,-568.93,-0.0301
3108,31.08,-568.92,0.0102
3109,31.09,-568.91,0.0392
3110,31.1,-568.9,0.0543
3111,31.11,-568.89,0.066
3112,31.12,-568.88,0.0895
3113,31.13,-568.87,0.0699
3114,31.14,-568.86,0.0456
3115,31.15,-568.85,0.0392
3116,31.16,-568.84,-0.025
3117,31.17,-568.83,-0.0656
3118,31.18,-568.82,-0.0572
3119,31.19,-568.81,-0.0567
3120,31.2,-568.8,-0.0524
3121,31.21,-568.79,-0.0504
3122,31.22,-568.78,-0.0479
3123,31.23,-568.77,-0.0292
3124,31.24,-568.76,0.0392
3125,31.25,-568.75,0.709
3126,31.26,-568.74,1.7246
3127,31.27,-568.73,1.3092
3128,31.28,-568.72,-0.2532
3129,31.29,-568.71,-0.7186
3130,31.3,-568.7,-0.4607
3131,31.31,-568.69,-0.2415
3132,31.32,-568.68,-0.122
3133,31.33,-568.67,-0.0637
3134,31.34,-568.66,-0.0361
3135,31.35,-568.65,-0.0472
3136,31.36,-568.64,-0.0343
3137,31.37,-568.63,-0.0243
3138,31.38,-568.62,-0.0249
3139,31.39,-568.61,-0.0483
3140,31.4,-568.6,-0.0457
3141,31.41,-568.59,-0.0314
3142,31.42,-568.58,-0.0352
3143,31.43,-568.57,-0.0401
3144,31.44,-568.56,-0.0553
3145,31.45,-568.55,-0.0389
3146,31.46,-568.54,-0.0469
3147,31.47,-568.53,-0.0283
3148,31.48,-568.52,-0.0302
3149,31.49,-568.51,-0.032
3150,31.5,-568.5,-0.0363
3151,31.51,-568.49,-0.0363
3152,31.52,-568.48,-0.0437
3153,31.53,-568.47,-0.032
3154,31.54,-568.46,-0.0258
3155,31.55,-568.45,-0.0074
3156,31.56,-568.44,0.0334
3157,31.57,-568.43,0.0652
3158,31.58,-568.42,0.1018
3159,31.59,-568.41,0.1018
3160,31.6,-568.4,0.0936
3161,31.61,-568.39,0.0724
3162,31.62,-568.38,0.0753
3163,31.63,-568.37,0.0503
3164,31.64,-568.36,0.0493
3165,31.65,-568.35,0.0362
3166,31.66,-568.34,0.0087
3167,31.67,-568.33,-0.0017
3168,31.68,-568.32,0.0112
3169,31.69,-568.31,0.0116
3170,31.7,-568.3,0.0126
3171,31.71,-568.29,0.0241
3172,31.72,-568.28,0.0185
3173,31.73,-568.27,0.0203
3174,31.74,-568.26,0.0189
3175,31.75,-568.25,0.0181
3176,31.76,-568.24,0.0208
3177,31.77,-568.23,0.0088
3178,31.78,-568.22,-0.0035
3179,31.79,-568.21,-0.0002
3180,31.8,-568.2,-0.0012
3181,31.81,-568.19,-0.0002
3182,31.82,-568.18,0.0012
3183,31.83,-568.17,-0.0169
3184,31.84,-568.16,-0.0174
3185,31.85,-568.15,-0.0165
3186,31.86,-568.14,-0.0009
3187,31.87,-568.13,0.0454
3188,31.88,-568.12,0.0534
3189,31.89,-568.11,0.0837
3190,31.9,-568.1,0.0946
3191,31.91,-568.09,0.0929
3192,31.92,-568.08,0.0488
3193,31.93,-568.07,0.0398
3194,31.94,-568.06,0.0136
3195,31.95,-568.05,-0.0402
3196,31.96,-568.04,-0.0569
3197,31.97,-568.03,-0.0543
3198,31.98,-568.02,-0.0531
3199,31.99,-568.01,-0.0493
3200,32,-568,-0.0509
3201,32.01,-567.99,-0.0447
3202,32.02,-567.98,-0.0121
3203,32.03,-567.97,0.5593
3204,32.04,-567.96,1.6676
3205,32.05,-567.95,1.5866
3206,32.06,-567.94,-0.0098
3207,32.07,-567.93,-0.7481
3208,32.08,-567.92,-0.511
3209,32.09,-567.91,-0.2669
3210,32.1,-567.9,-0.1375
3211,32.11,-567.89,-0.0778
3212,32.12,-567.88,-0.0469
3213,32.13,-567.87,-0.054
3214,32.14,-567.86,-0.0507
3215,32.15,-567.85,-0.0547
3216,32.16,-567.84,-0.0556
3217,32.17,-567.83,-0.0573
3218,32.18,-567.82,-0.0605
3219,32.19,-567.81,-0.0443
3220,32.2,-567.8,-0.066
3221,32.21,-567.79,-0.0546
3222,32.22,-567.78,-0.0454
3223,32.23,-567.77,-0.0485
3224,32.24,-567.76,-0.0528
3225,32.25,-567.75,-0.043
3226,32.26,-567.74,-0.0339
3227,32.27,-567.73,-0.0376
3228,32.28,-567.72,-0.0427
3229,32.29,-567.71,-0.0323
3230,32.3,-567.7,-0.0249
3231,32.31,-567.69,-0.0092
3232,32.32,-567.68,-0.0135
3233,32.33,-567.67,0.0053
3234,32.34,-567.66,0.0414
3235,32.35,-567.65,0.0796
3236,32.36,-567.64,0.1009
3237,32.37,-567.63,0.0975
3238,32.38,-567.62,0.0804
3239,32.39,-567.61,0.0527
3240,32.4,-567.6,0.0429
3241,32.41,-567.59,0.0233
3242,32.42,-567.58,0.0237
3243,32.43,-567.57,0.0209
3244,32.44,-567.56,0.0181
3245,32.45,-567.55,0.02
3246,32.46,-567.54,0.0022
3247,32.47,-567.53,0.0116
3248,32.48,-567.52,-0.006
3249,32.49,-567.51,0.0037
3250,32.5,-567.5,0.0156
3251,32.51,-567.49,0.0106
3252,32.52,-567.48,0.0116
3253,32.53,-567.47,0.01
3254,32.54,-567.46,0.0096
3255,32.55,-567.45,0.0103
3256,32.56,-567.44,0.0085
3257,32.57,-567.43,0.0126
3258,32.58,-567.42,-0.0045
3259,32.59,-567.41,-0.0085
3260,32.6,-567.4,-0.0125
3261,32.61,-567.39,-0.0293
3262,32.62,-567.38,-0.0247
3263,32.63,-567.37,-0.0251
3264,32.64,-567.36,-0.0232
3265,32.65,-567.35,-0.0152
3266,32.66,-567.34,0.0301
3267,32.67,-567.33,0.0629
3268,32.68,-567.32,0.0612
3269,32.69,-567.31,0.075
3270,32.7,-567.3,0.0906
3271,32.71,-567.29,0.0526
3272,32.72,-567.28,0.0474
3273,32.73,-567.27,0.0144
3274,32.74,-567.26,-0.0374
3275,32.75,-567.25,-0.0632
3276,32.76,-567.24,-0.0614
3277,32.77,-567.23,-0.0592
3278,32.78,-567.22,-0.0567
3279,32.79,-567.21,-0.0543
3280,32.8,-567.2,-0.0329
3281,32.81,-567.19,-0.0595
3282,32.82,-567.18,0.2821
3283,32.83,-567.17,1.3707
3284,32.84,-567.16,1.8698
3285,32.85,-567.15,0.5155
3286,32.86,-567.14,-0.7066
3287,32.87,-567.13,-0.6262
3288,32.88,-567.12,-0.3261
3289,32.89,-567.11,-0.1623
3290,32.9,-567.1,-0.0983
3291,32.91,-567.09,-0.0567
3292,32.92,-567.08,-0.0622
3293,32.93,-567.07,-0.0598
3294,32.94,-567.06,-0.0623
3295,32.95,-567.05,-0.0651
3296,32.96,-567.04,-0.0598
3297,32.97,-567.03,-0.045
3298,32.98,-567.02,-0.0501
3299,32.99,-567.01,-0.05
3300,33,-567,-0.0522
3301,33.01,-566.99,-0.0531
3302,33.02,-566.98,-0.0545
3303,33.03,-566.97,-0.0564
3304,33.04,-566.96,-0.057
3305,33.05,-566.95,-0.0611
3306,33.06,-566.94,-0.0481
3307,33.07,-566.93,-0.0394
3308,33.08,-566.92,-0.0262
3309,33.09,-566.91,-0.0264
3310,33.1,-566.9,-0.031
3311,33.11,-566.89,-0.0114
3312,33.12,-566.88,0.0101
3313,33.13,-566.87,0.0438
3314,33.14,-566.86,0.0811
3315,33.15,-566.85,0.0981
3316,33.16,-566.84,0.1248
3317,33.17,-566.83,0.0959
3318,33.18,-566.82,0.0704
3319,33.19,-566.81,0.058
3320,33.2,-566.8,0.0432
3321,33.21,-566.79,0.0269
3322,33.22,-566.78,0.0277
3323,33.23,-566.77,0.0065
3324,33.24,-566.76,0.0049
3325,33.25,-566.75,0.0034
3326,33.26,-566.74,0.0063
3327,33.27,-566.73,0.0005
3328,33.28,-566.72,0.0132
3329,33.29,-566.71,0.0125
3330,33.3,-566.7,0.0147
3331,33.31,-566.69,0.0233
3332,33.32,-566.68,0.0228
3333,33.33,-566.67,0.0093
3334,33.34,-566.66,0.0121
3335,33.35,-566.65,0.0222
3336,33.36,-566.64,0.0208
3337,33.37,-566.63,0.0117
3338,33.38,-566.62,-0.0013
3339,33.39,-566.61,0.0021
3340,33.4,-566.6,-0.0194
3341,33.41,-566.59,-0.0135
3342,33.42,-566.58,-0.0289
3343,33.43,-566.57,-0.0361
3344,33.44,-566.56,-0.0254
3345,33.45,-566.55,-0.0059
3346,33.46,-566.54,-0.0073
3347,33.47,-566.53,0.0342
3348,33.48,-566.52,0.0447
3349,33.49,-566.51,0.0773
3350,33.5,-566.5,0.0754
3351,33.51,-566.49,0.0656
3352,33.52,-566.48,0.0551
3353,33.53,-566.47,0.0489
3354,33.54,-566.46,0.0103
3355,33.55,-566.45,-0.0382
3356,33.56,-566.44,-0.0556
3357,33.57,-566.43,-0.05
3358,33.58,-566.42,-0.06
3359,33.59,-566.41,-0.0698
3360,33.6,-566.4,-0.0506
3361,33.61,-566.39,-0.0588
3362,33.62,-566.38,-0.008
3363,33.63,-566.37,0.545
3364,33.64,-566.36,1.7592
3365,33.65,-566.35,1.5074
3366,33.66,-566.34,-0.13
3367,33.67,-566.33,-0.7615
3368,33.68,-566.32,-0.5
3369,33.69,-566.31,-0.236
3370,33.7,-566.3,-0.1223
3371,33.71,-566.29,-0.0914
3372,33.72,-566.28,-0.0463
3373,33.73,-566.27,-0.062
3374,33.74,-566.26,-0.0709
3375,33.75,-566.25,-0.0573
3376,33.76,-566.24,-0.0689
3377,33.77,-566.23,-0.0532
3378,33.78,-566.22,-0.0715
3379,33.79,-566.21,-0.0699
3380,33.8,-566.2,-0.0714
3381,33.81,-566.19,-0.0774
3382,33.82,-566.18,-0.0589
3383,33.83,-566.17,-0.0464
3384,33.84,-566.16,-0.0674
3385,33.85,-566.15,-0.0478
3386,33.86,-566.14,-0.0566
3387,33.87,-566.13,-0.0542
3388,33.88,-566.12,-0.0375
3389,33.89,-566.11,-0.0444
3390,33.9,-566.1,-0.0275
3391,33.91,-566.09,-0.0281
3392,33.92,-566.08,-0.0177
3393,33.93,-566.07,0.0189
3394,33.94,-566.06,0.0567
3395,33.95,-566.05,0.0828
3396,33.96,-566.04,0.0895
3397,33.97,-566.03,0.0916
3398,33.98,-566.02,0.0754
3399,33.99,-566.01,0.0561
3400,34,-566,0.0318
3401,34.01,-565.99,0.0224
3402,34.02,-565.98,0.0038
3403,34.03,-565.97,0.0096
3404,34.04,-565.96,0.0006
3405,34.05,-565.95,0.0175
3406,34.06,-565.94,0.0123
3407,34.07,-565.93,0.002
3408,34.08,-565.92,0.006
3409,34.09,-565.91,0.0032
3410,34.1,-565.9,0.0041
3411,34.11,-565.89,0.0025
3412,34.12,-565.88,0.0025
3413,34.13,-565.87,0.0016
3414,34.14,-565.86,0.0011
3415,34.15,-565.85,0.0012
3416,34.16,-565.84,0.0008
3417,34.17,-565.83,0.002
3418,34.18,-565.82,0.0014
3419,34.19,-565.81,0.0043
3420,34.2,-565.8,-0.0018
3421,34.21,-565.79,-0.018
3422,34.22,-565.78,-0.012
3423,34.23,-565.77,-0.016
3424,34.24,-565.76,-0.03
3425,34.25,-565.75,-0.0302
3426,34.26,-565.74,-0.0113
3427,34.27,-565.73,0.0327
3428,34.28,-565.72,0.047
3429,34.29,-565.71,0.0626
3430,34.3,-565.7,0.0787
3431,34.31,-565.69,0.0896
3432,34.32,-565.68,0.064
3433,34.33,-565.67,0.0454
3434,34.34,-565.66,0.0066
3435,34.35,-565.65,-0.0422
3436,34.36,-565.64,-0.0603
3437,34.37,-565.63,-0.0555
3438,34.38,-565.62,-0.0541
3439,34.39,-565.61,-0.049
3440,34.4,-565.6,-0.05
3441,34.41,-565.59,-0.0412
3442,34.42,-565.58,-0.0432
3443,34.43,-565.57,0.3598
3444,34.44,-565.56,1.4771
3445,34.45,-565.55,1.8087
3446,34.46,-565.54,0.3546
3447,34.47,-565.53,-0.7244
3448,34.48,-565.52,-0.5719
3449,34.49,-565.51,-0.3077
3450,34.5,-565.5,-0.1548
3451,34.51,-565.49,-0.0859
3452,34.52,-565.48,-0.0598
3453,34.53,-565.47,-0.0526
3454,34.54,-565.46,-0.036
3455,34.55,-565.45,-0.0612
3456,34.56,-565.44,-0.0633
3457,34.57,-565.43,-0.0645
3458,34.58,-565.42,-0.0682
3459,34.59,-565.41,-0.0665
3460,34.6,-565.4,-0.0519
3461,34.61,-565.39,-0.0502
3462,34.62,-565.38,-0.0694
3463,34.63,-565.37,-0.0583
3464,34.64,-565.36,-0.0572
3465,34.65,-565.35,-0.05
3466,34.66,-565.34,-0.0368
3467,34.67,-565.33,-0.0458
3468,34.68,-565.32,-0.0383
3469,34.69,-565.31,-0.0257
3470,34.7,-565.3,-0.0307
3471,34.71,-565.29,-0.0321
3472,34.72,-565.28,-0.0333
3473,34.73,-565.27,0.0026
3474,34.74,-565.26,0.0369
3475,34.75,-565.25,0.0564
3476,34.76,-565.24,0.1042
3477,34.77,-565.23,0.1032
3478,34.78,-565.22,0.0859
3479,34.79,-565.21,0.0721
3480,34.8,-565.2,0.0556
3481,34.81,-565.19,0.042
3482,34.82,-565.18,0.0246
3483,34.83,-565.17,0.014
3484,34.84,-565.16,0.0148
3485,34.85,-565.15,0.012
3486,34.86,-565.14,0.0124
3487,34.87,-565.13,-0.0046
3488,34.88,-565.12,0.0107
3489,34.89,-565.11,0.0107
3490,34.9,-565.1,0.0087
3491,34.91,-565.09,0.0096
3492,34.92,-565.08,0.0043
3493,34.93,-565.07,0.0164
3494,34.94,-565.06,0.0258
3495,34.95,-565.05,0.0244
3496,34.96,-565.04,0.0176
3497,34.97,-565.03,0.0012
3498,34.98,-565.02,0.003
3499,34.99,-565.01,0.0049
3500,35,-565,-0.002
3501,35.01,-564.99,-0.0149
3502,35.02,-564.98,-0.0265
3503,35.03,-564.97,-0.0345
3504,35.04,-564.96,-0.0296
3505,35.05,-564.95,-0.0303
3506,35.06,-564.94,-0.0277
3507,35.07,-564.93,-0.027
3508,35.08,-564.92,-0.0219
3509,35.09,-564.91,0.0167
3510,35.1,-564.9,0.0584
3511,35.11,-564.89,0.0594
3512,35.12,-564.88,0.0695
3513,35.13,-564.87,0.0867
3514,35.14,-564.86,0.0873
3515,35.15,-564.85,0.0545
3516,35.16,-564.84,0.0457
3517,35.17,-564.83,0.0158
3518,35.18,-564.82,-0.0393
3519,35.19,-564.81,-0.0436
3520,35.2,-564.8,-0.0428
3521,35.21,-564.79,-0.0357
3522,35.22,-564.78,-0.0535
3523,35.23,-564.77,-0.0355
3524,35.24,-564.76,-0.0457
3525,35.25,-564.75,-0.0246
3526,35.26,-564.74,0.6008
3527,35.27,-564.73,1.7194
3528,35.28,-564.72,1.5989
3529,35.29,-564.71,-0.0279
3530,35.3,-564.7,-0.7694
3531,35.31,-564.69,-0.4875
3532,35.32,-564.68,-0.2335
3533,35.33,-564.67,-0.1014
3534,35.34,-564.66,-0.0681
3535,35.35,-564.65,-0.0423
3536,35.36,-564.64,-0.0429
3537,35.37,-564.63,-0.044
3538,35.38,-564.62,-0.0433
3539,35.39,-564.61,-0.0494
3540,35.4,-564.6,-0.0616
3541,35.41,-564.59,-0.0459
3542,35.42,-564.58,-0.0509
3543,35.43,-564.57,-0.0663
3544,35.44,-564.56,-0.0529
3545,35.45,-564.55,-0.0532
3546,35.46,-564.54,-0.0555
3547,35.47,-564.53,-0.0544
3548,35.48,-564.52,-0.0362
3549,35.49,-564.51,-0.0405
3550,35.5,-564.5,-0.0264
3551,35.51,-564.49,-0.0181
3552,35.52,-564.48,-0.0261
3553,35.53,-564.47,-0.0125
3554,35.54,-564.46,-0.0046
3555,35.55,-564.45,0.0125
3556,35.56,-564.44,0.0357
3557,35.57,-564.43,0.0692
3558,35.58,-564.42,0.1064
3559,35.59,-564.41,0.1233
3560,35.6,-564.4,0.1266
3561,35.61,-564.39,0.1139
3562,35.62,-564.38,0.0841
3563,35.63,-564.37,0.0773
3564,35.64,-564.36,0.0507
3565,35.65,-564.35,0.0328
3566,35.66,-564.34,0.0354
3567,35.67,-564.33,0.0306
3568,35.68,-564.32,0.012
3569,35.69,-564.31,0.012
3570,35.7,-564.3,0.0111
3571,35.71,-564.29,-0.0061
3572,35.72,-564.28,-0.0129
3573,35.73,-564.27,-0.0002
3574,35.74,-564.26,0.0109
3575,35.75,-564.25,0.0071
3576,35.76,-564.24,0.0082
3577,35.77,-564.23,0.0067
3578,35.78,-564.22,0.0073
3579,35.79,-564.21,0.0065
3580,35.8,-564.2,0.0071
3581,35.81,-564.19,0.0061
3582,35.82,-564.18,0.0076
3583,35.83,-564.17,-0.0115
3584,35.84,-564.16,-0.0131
3585,35.85,-564.15,-0.0126
3586,35.86,-564.14,-0.0103
3587,35.87,-564.13,-0.0291
3588,35.88,-564.12,-0.0277
3589,35.89,-564.11,-0.0369
3590,35.9,-564.1,-0.0496
3591,35.91,-564.09,-0.0255
3592,35.92,-564.08,-0.0234
3593,35.93,-564.07,-0.0209
3594,35.94,-564.06,-0.019
3595,35.95,-564.05,-0.0139
3596,35.96,-564.04,0.0344
3597,35.97,-564.03,0.0504
3598,35.98,-564.02,0.0529
3599,35.99,-564.01,0.0709
3600,36,-564,0.0838
3601,36.01,-563.99,0.0591
3602,36.02,-563.98,0.0527
3603,36.03,-563.97,0.0526
3604,36.04,-563.96,-0.0128
3605,36.05,-563.95,-0.0527
3606,36.06,-563.94,-0.0439
3607,36.07,-563.93,-0.0447
3608,36.08,-563.92,-0.035
3609,36.09,-563.91,-0.015
3610,36.1,-563.9,-0.03
3611,36.11,-563.89,-0.0503
3612,36.12,-563.88,0.3176
3613,36.13,-563.87,1.4012
3614,36.14,-563.86,1.9126
3615,36.15,-563.85,0.5329
3616,36.16,-563.84,-0.6962
3617,36.17,-563.83,-0.5865
3618,36.18,-563.82,-0.3034
3619,36.19,-563.81,-0.1283
3620,36.2,-563.8,-0.0984
3621,36.21,-563.79,-0.0591
3622,36.22,-563.78,-0.0559
3623,36.23,-563.77,-0.0488
3624,36.24,-563.76,-0.059
3625,36.25,-563.75,-0.0621
3626,36.26,-563.74,-0.0447
3627,36.27,-563.73,-0.0668
3628,36.28,-563.72,-0.0446
3629,36.29,-563.71,-0.0573
3630,36.3,-563.7,-0.0695
3631,36.31,-563.69,-0.0625
3632,36.32,-563.68,-0.0471
3633,36.33,-563.67,-0.0372
3634,36.34,-563.66,-0.0223
3635,36.35,-563.65,-0.0321
3636,36.36,-563.64,-0.0191
3637,36.37,-563.63,-0.0214
3638,36.38,-563.62,-0.0219
3639,36.39,-563.61,-0.0115
3640,36.4,-563.6,0.0056
3641,36.41,-563.59,0.0232
3642,36.42,-563.58,0.0125
3643,36.43,-563.57,0.0537
3644,36.44,-563.56,0.0964
3645,36.45,-563.55,0.118
3646,36.46,-563.54,0.1265
3647,36.47,-563.53,0.0998
3648,36.48,-563.52,0.0958
3649,36.49,-563.51,0.0823
3650,36.5,-563.5,0.0489
3651,36.51,-563.49,0.0406
3652,36.52,-563.48,0.0363
3653,36.53,-563.47,0.0316
3654,36.54,-563.46,0.0136
3655,36.55,-563.45,0.0108
3656,36.56,-563.44,0.0004
3657,36.57,-563.43,-0.0109
3658,36.58,-563.42,0.1499
3659,36.59,-563.41,0.1433
3660,36.6,-563.4,-0.5603
3661,36.61,-563.39,-1.3646
3662,36.62,-563.38,-1.7942
3663,36.63,-563.37,-1.6255
3664,36.64,-563.36,-1.1384
3665,36.65,-563.35,-0.4892
3666,36.66,-563.34,-0.2266
3667,36.67,-563.33,-0.1308
3668,36.68,-563.32,-0.0007
3669,36.69,-563.31,0.0004
3670,36.7,-563.3,0.0185
3671,36.71,-563.29,0.0238
3672,36.72,-563.28,0.0421
3673,36.73,-563.27,0.0363
3674,36.74,-563.26,0.0523
3675,36.75,-563.25,0.0585
3676,36.76,-563.24,0.0818
3677,36.77,-563.23,0.1045
3678,36.78,-563.22,0.1472
3679,36.79,-563.21,0.1767
3680,36.8,-563.2,0.2147
3681,36.81,-563.19,0.3151
3682,36.82,-563.18,0.3677
3683,36.83,-563.17,0.4423
3684,36.84,-563.16,0.5117
3685,36.85,-563.15,0.5737
3686,36.86,-563.14,0.6412
3687,36.87,-563.13,0.6692
3688,36.88,-563.12,0.697
3689,36.89,-563.11,0.6788
3690,36.9,-563.1,0.6275
3691,36.91,-563.09,0.5647
3692,36.92,-563.08,0.4567
3693,36.93,-563.07,0.3476
3694,36.94,-563.06,0.2352
3695,36.95,-563.05,0.1485
3696,36.96,-563.04,0.085
3697,36.97,-563.03,0.045
3698,36.98,-563.02,0.0293
3699,36.99,-563.01,0.0013
3700,37,-563,-0.0087
3701,37.01,-562.99,-0.0206
3702,37.02,-562.98,-0.0126
3703,37.03,-562.97,-0.0006
3704,37.04,-562.96,-0.0209
3705,37.05,-562.95,-0.0137
3706,37.06,-562.94,-0.0141
3707,37.07,-562.93,-0.008
3708,37.08,-562.92,-0.0121
3709,37.09,-562.91,-0.0278
3710,37.1,-562.9,-0.0064
3711,37.11,-562.89,0.0024
3712,37.12,-562.88,-0.0228
3713,37.13,-562.87,-0.034
3714,37.14,-562.86,-0.0303
3715,37.15,-562.85,-0.0283
3716,37.16,-562.84,-0.0283
3717,37.17,-562.83,-0.0237
3718,37.18,-562.82,-0.0399
3719,37.19,-562.81,-0.028
3720,37.2,-562.8,-0.0219
3721,37.21,-562.79,-0.0238
3722,37.22,-562.78,-0.0214
3723,37.23,-562.77,-0.0219
3724,37.24,-562.76,-0.0203
3725,37.25,-562.75,-0.0207
3726,37.26,-562.74,-0.0195
3727,37.27,-562.73,-0.0196
3728,37.28,-562.72,0.0042
3729,37.29,-562.71,-0.0119
3730,37.3,-562.7,-0.0075
3731,37.31,-562.69,-0.0137
3732,37.32,-562.68,-0.0242
3733,37.33,-562.67,-0.0082
3734,37.34,-562.66,0.0018
3735,37.35,-562.65,-0.0171
3736,37.36,-562.64,-0.0223
3737,37.37,-562.63,-0.0096
3738,37.38,-562.62,0.0025
3739,37.39,-562.61,-0.001
3740,37.4,-562.6,0.0009
3741,37.41,-562.59,-0.0003
3742,37.42,-562.58,0.0004
3743,37.43,-562.57,-0.0002
3744,37.44,-562.56,0
3745,37.45,-562.55,-0.0001
3746,37.46,-562.54,-0.0002
3747,37.47,-562.53,0.0159
3748,37.48,-562.52,-0.0005
3749,37.49,-562.51,-0.0001
3750,37.5,-562.5,-0.001
3751,37.51,-562.49,0.0014
3752,37.52,-562.48,0.0204
3753,37.53,-562.47,0.0187
3754,37.54,-562.46,0.02
3755,37.55,-562.45,0.0033
3756,37.56,-562.44,0.0434
3757,37.57,-562.43,0.0265
3758,37.58,-562.42,0.0319
3759,37.59,-562.41,0.024
3760,37.6,-562.4,0.0166
3761,37.61,-562.39,0.0214
3762,37.62,-562.38,0.0056
3763,37.63,-562.37,-0.005
3764,37.64,-562.36,0.0078
3765,37.65,-562.35,0.0109
3766,37.66,-562.34,-0.0034
3767,37.67,-562.33,0.0182
3768,37.68,-562.32,0.0287
3769,37.69,-562.31,0.0777
3770,37.7,-562.3,0.0799
3771,37.71,-562.29,0.106
3772,37.72,-562.28,0.1185
3773,37.73,-562.27,0.1049
3774,37.74,-562.26,0.0922
3775,37.75,-562.25,0.0844
3776,37.76,-562.24,0.0552
3777,37.77,-562.23,-0.0186
3778,37.78,-562.22,-0.0326
3779,37.79,-562.21,-0.0287
3780,37.8,-562.2,-0.0299
3781,37.81,-562.19,-0.0257
3782,37.82,-562.18,-0.0423
3783,37.83,-562.17,-0.0048
3784,37.84,-562.16,0.5488
3785,37.85,-562.15,1.6502
3786,37.86,-562.14,1.6638
3787,37.87,-562.13,0.1107
3788,37.88,-562.12,-0.7153
3789,37.89,-562.11,-0.4828
3790,37.9,-562.1,-0.2444
3791,37.91,-562.09,-0.129
3792,37.92,-562.08,-0.0776
3793,37.93,-562.07,-0.0448
3794,37.94,-562.06,-0.038
3795,37.95,-562.05,-0.0374
3796,37.96,-562.04,-0.0373
3797,37.97,-562.03,-0.0383
3798,37.98,-562.02,-0.0394
3799,37.99,-562.01,-0.0414
3800,38,-562,-0.0427
3801,38.01,-561.99,-0.0444
3802,38.02,-561.98,-0.046
3803,38.03,-561.97,-0.0302
3804,38.04,-561.96,-0.0262
3805,38.05,-561.95,-0.0399
3806,38.06,-561.94,-0.055
3807,38.07,-561.93,-0.0161
3808,38.08,-561.92,-0.0137
3809,38.09,-561.91,-0.0165
3810,38.1,-561.9,-0.017
3811,38.11,-561.89,-0.0526
3812,38.12,-561.88,-0.0419
3813,38.13,-561.87,-0.0405
3814,38.14,-561.86,-0.0466
3815,38.15,-561.85,-0.0071
3816,38.16,-561.84,0.0395
3817,38.17,-561.83,0.0979
3818,38.18,-561.82,0.1585
3819,38.19,-561.81,0.1828
3820,38.2,-561.8,0.1787
3821,38.21,-561.79,0.1814
3822,38.22,-561.78,0.1461
3823,38.23,-561.77,0.1282
3824,38.24,-561.76,0.1048
3825,38.25,-561.75,0.0839
3826,38.26,-561.74,0.0857
3827,38.27,-561.73,0.082
3828,38.28,-561.72,0.0823
3829,38.29,-561.71,0.0806
3830,38.3,-561.7,0.0789
3831,38.31,-561.69,0.0781
3832,38.32,-561.68,0.0747
3833,38.33,-561.67,0.0768
3834,38.34,-561.66,0.058
3835,38.35,-561.65,0.0509
3836,38.36,-561.64,0.0495
3837,38.37,-561.63,0.0518
3838,38.38,-561.62,0.0328
3839,38.39,-561.61,0.0289
3840,38.4,-561.6,0.0211
3841,38.41,-561.59,0.0091
3842,38.42,-561.58,-0.0194
3843,38.43,-561.57,-0.0366
3844,38.44,-561.56,-0.0292
3845,38.45,-561.55,-0.0325
3846,38.46,-561.54,-0.0276
3847,38.47,-561.53,-0.0299
3848,38.48,-561.52,-0.0459
3849,38.49,-561.51,-0.0432
3850,38.5,-561.5,-0.0421
3851,38.51,-561.49,-0.0389
3852,38.52,-561.48,-0.0387
3853,38.53,-561.47,-0.0341
3854,38.54,-561.46,-0.0366
3855,38.55,-561.45,0.0077
3856,38.56,-561.44,0.0296
3857,38.57,-561.43,0.042
3858,38.58,-561.42,0.0565
3859,38.59,-561.41,0.0561
3860,38.6,-561.4,0.0312
3861,38.61,-561.39,0.0291
3862,38.62,-561.38,0.0467
3863,38.63,-561.37,0.009
3864,38.64,-561.36,-0.0252
3865,38.65,-561.35,-0.0535
3866,38.66,-561.34,-0.0475
3867,38.67,-561.33,-0.0441
3868,38.68,-561.32,-0.0252
3869,38.69,-561.31,-0.02
3870,38.7,-561.3,-0.0436
3871,38.71,-561.29,0.1933
3872,38.72,-561.28,1.1603
3873,38.73,-561.27,1.8712
3874,38.74,-561.26,0.7931
3875,38.75,-561.25,-0.6172
3876,38.76,-561.24,-0.6623
3877,38.77,-561.23,-0.347
3878,38.78,-561.22,-0.1522
3879,38.79,-561.21,-0.0828
3880,38.8,-561.2,-0.0565
3881,38.81,-561.19,-0.0608
3882,38.82,-561.18,-0.0599
3883,38.83,-561.17,-0.0423
3884,38.84,-561.16,-0.0412
3885,38.85,-561.15,-0.041
3886,38.86,-561.14,-0.0588
3887,38.87,-561.13,-0.0673
3888,38.88,-561.12,-0.0463
3889,38.89,-561.11,-0.0539
3890,38.9,-561.1,-0.038
3891,38.91,-561.09,-0.0332
3892,38.92,-561.08,-0.0373
3893,38.93,-561.07,-0.0376
3894,38.94,-561.06,-0.0409
3895,38.95,-561.05,-0.024
3896,38.96,-561.04,-0.0234
3897,38.97,-561.03,-0.0267
3898,38.98,-561.02,-0.0275
3899,38.99,-561.01,-0.0484
3900,39,-561,-0.0503
3901,39.01,-560.99,-0.0208
3902,39.02,-560.98,-0.0182
3903,39.03,-560.97,0.0199
3904,39.04,-560.96,0.0648
3905,39.05,-560.95,0.0868
3906,39.06,-560.94,0.0961
3907,39.07,-560.93,0.0908
3908,39.08,-560.92,0.0869
3909,39.09,-560.91,0.0539
3910,39.1,-560.9,0.0442
3911,39.11,-560.89,0.0401
3912,39.12,-560.88,0.0189
3913,39.13,-560.87,0.0173
3914,39.14,-560.86,0.0162
3915,39.15,-560.85,0.0134
3916,39.16,-560.84,0.0198
3917,39.17,-560.83,0.0359
3918,39.18,-560.82,0.0319
3919,39.19,-560.81,0.0333
3920,39.2,-560.8,0.031
3921,39.21,-560.79,0.0317
3922,39.22,-560.78,0.0294
3923,39.23,-560.77,0.0316
3924,39.24,-560.76,0.0242
3925,39.25,-560.75,0.0072
3926,39.26,-560.74,0.0113
3927,39.27,-560.73,0.0069
3928,39.28,-560.72,-0.0105
3929,39.29,-560.71,-0.0104
3930,39.3,-560.7,-0.0096
3931,39.31,-560.69,-0.0095
3932,39.32,-560.68,-0.0066
3933,39.33,-560.67,-0.0142
3934,39.34,-560.66,-0.0416
3935,39.35,-560.65,-0.0423
3936,39.36,-560.64,-0.0184
3937,39.37,-560.63,-0.0274
3938,39.38,-560.62,-0.039
3939,39.39,-560.61,0.0071
3940,39.4,-560.6,0.0327
3941,39.41,-560.59,0.0409
3942,39.42,-560.58,0.0788
3943,39.43,-560.57,0.059
3944,39.44,-560.56,0.0301
3945,39.45,-560.55,0.0528
3946,39.46,-560.54,0.0402
3947,39.47,-560.53,-0.0214
3948,39.48,-560.52,-0.0397
3949,39.49,-560.51,-0.0445
3950,39.5,-560.5,-0.0548
3951,39.51,-560.49,-0.0459
3952,39.52,-560.48,-0.0218
3953,39.53,-560.47,-0.0416
3954,39.54,-560.46,0.0065
3955,39.55,-560.45,0.7282
3956,39.56,-560.44,1.7468
3957,39.57,-560.43,1.3263
3958,39.58,-560.42,-0.2981
3959,39.59,-560.41,-0.7515
3960,39.6,-560.4,-0.4363
3961,39.61,-560.39,-0.1895
3962,39.62,-560.38,-0.0862
3963,39.63,-560.37,-0.0369
3964,39.64,-560.36,-0.0327
3965,39.65,-560.35,-0.0295
3966,39.66,-560.34,-0.0565
3967,39.67,-560.33,-0.0777
3968,39.68,-560.32,-0.0549
3969,39.69,-560.31,-0.0343
3970,39.7,-560.3,-0.0675
3971,39.71,-560.29,-0.0689
3972,39.72,-560.28,-0.0437
3973,39.73,-560.27,-0.0266
3974,39.74,-560.26,-0.0305
3975,39.75,-560.25,-0.0264
3976,39.76,-560.24,-0.0309
3977,39.77,-560.23,-0.017
3978,39.78,-560.22,-0.0061
3979,39.79,-560.21,-0.0071
3980,39.8,-560.2,-0.012
3981,39.81,-560.19,-0.0309
3982,39.82,-560.18,-0.0256
3983,39.83,-560.17,-0.0313
3984,39.84,-560.16,-0.0195
3985,39.85,-560.15,0.0312
3986,39.86,-560.14,0.0814
3987,39.87,-560.13,0.1274
3988,39.88,-560.12,0.1386
3989,39.89,-560.11,0.1803
3990,39.9,-560.1,0.1356
3991,39.91,-560.09,0.1336
3992,39.92,-560.08,0.1106
3993,39.93,-560.07,0.0663
3994,39.94,-560.06,0.0421
3995,39.95,-560.05,0.0232
3996,39.96,-560.04,0.0317
3997,39.97,-560.03,0.0621
3998,39.98,-560.02,0.0519
3999,39.99,-560.01,0.0694
4000,40,-560,0.0735
4001,40.01,-559.99,0.0178
4002,40.02,-559.98,0.0428
4003,40.03,-559.97,0.0662
4004,40.04,-559.96,0.0794
4005,40.05,-559.95,0.0265
4006,40.06,-559.94,0.0404
4007,40.07,-559.93,0.0255
4008,40.08,-559.92,0.0031
4009,40.09,-559.91,0.006
4010,40.1,-559.9,0.0064
4011,40.11,-559.89,0.0057
4012,40.12,-559.88,-0.0147
4013,40.13,-559.87,-0.0441
4014,40.14,-559.86,-0.0358
4015,40.15,-559.85,-0.0255
4016,40.16,-559.84,-0.0259
4017,40.17,-559.83,-0.0241
4018,40.18,-559.82,-0.018
4019,40.19,-559.81,-0.0211
4020,40.2,-559.8,-0.0216
4021,40.21,-559.79,0.0158
4022,40.22,-559.78,0.0254
4023,40.23,-559.77,0.0483
4024,40.24,-559.76,0.0551
4025,40.25,-559.75,0.0519
4026,40.26,-559.74,0.0235
4027,40.27,-559.73,0.0471
4028,40.28,-559.72,0.0103
4029,40.29,-559.71,-0.064
4030,40.3,-559.7,-0.0589
4031,40.31,-559.69,-0.0423
4032,40.32,-559.68,-0.05
4033,40.33,-559.67,-0.051
4034,40.34,-559.66,-0.0279
4035,40.35,-559.65,-0.0558
4036,40.36,-559.64,0.0964
4037,40.37,-559.63,1.0117
4038,40.38,-559.62,1.8572
4039,40.39,-559.61,0.9303
4040,40.4,-559.6,-0.5414
4041,40.41,-559.59,-0.6951
4042,40.42,-559.58,-0.3659
4043,40.43,-559.57,-0.1486
4044,40.44,-559.56,-0.0659
4045,40.45,-559.55,-0.0495
4046,40.46,-559.54,-0.0466
4047,40.47,-559.53,-0.0351
4048,40.48,-559.52,-0.0334
4049,40.49,-559.51,-0.0492
4050,40.5,-559.5,-0.0323
4051,40.51,-559.49,-0.017
4052,40.52,-559.48,-0.0479
4053,40.53,-559.47,-0.0425
4054,40.54,-559.46,-0.0647
4055,40.55,-559.45,-0.0729
4056,40.56,-559.44,-0.0483
4057,40.57,-559.43,-0.0372
4058,40.58,-559.42,-0.0421
4059,40.59,-559.41,-0.0454
4060,40.6,-559.4,-0.0512
4061,40.61,-559.39,-0.0874
4062,40.62,-559.38,-0.0828
4063,40.63,-559.37,-0.0631
4064,40.64,-559.36,-0.0574
4065,40.65,-559.35,-0.0563
4066,40.66,-559.34,-0.0774
4067,40.67,-559.33,-0.0551
4068,40.68,-559.32,0.0117
4069,40.69,-559.31,0.0359
4070,40.7,-559.3,0.0401
4071,40.71,-559.29,0.0492
4072,40.72,-559.28,0.0513
4073,40.73,-559.27,0.0215
4074,40.74,-559.26,-0.0136
4075,40.75,-559.25,-0.0226
4076,40.76,-559.24,-0.033
4077,40.77,-559.23,-0.0261
4078,40.78,-559.22,-0.0237
4079,40.79,-559.21,-0.0112
4080,40.8,-559.2,-0.0219
4081,40.81,-559.19,-0.034
4082,40.82,-559.18,-0.0214
4083,40.83,-559.17,-0.0354
4084,40.84,-559.16,-0.0318
4085,40.85,-559.15,-0.0161
4086,40.86,-559.14,0.0059
4087,40.87,-559.13,0.0164
4088,40.88,-559.12,0.0008
4089,40.89,-559.11,0.0078
4090,40.9,-559.1,0.0109
4091,40.91,-559.09,-0.0023
4092,40.92,-559.08,-0.002
4093,40.93,-559.07,0.0044
4094,40.94,-559.06,0.0072
4095,40.95,-559.05,0.0136
4096,40.96,-559.04,0.015
4097,40.97,-559.03,0.0316
4098,40.98,-559.02,0.0377
4099,40.99,-559.01,0.0061
4100,41,-559,0.0575
4101,41.01,-558.99,0.0969
4102,41.02,-558.98,0.096
4103,41.03,-558.97,0.1258
4104,41.04,-558.96,0.1582
4105,41.05,-558.95,0.1838
4106,41.06,-558.94,0.1726
4107,41.07,-558.93,0.1561
4108,41.08,-558.92,0.1541
4109,41.09,-558.91,0.1035
4110,41.1,-558.9,0.0931
4111,41.11,-558.89,0.1023
4112,41.12,-558.88,0.0893
4113,41.13,-558.87,0.1011
4114,41.14,-558.86,0.1062
4115,41.15,-558.85,0.1023
4116,41.16,-558.84,0.1099
4117,41.17,-558.83,0.5108
4118,41.18,-558.82,1.5711
4119,41.19,-558.81,1.7845
4120,41.2,-558.8,0.3223
4121,41.21,-558.79,-0.6565
4122,41.22,-558.78,-0.4442
4123,41.23,-558.77,-0.1274
4124,41.24,-558.76,-0.0178
4125,41.25,-558.75,0.0469
4126,41.26,-558.74,0.0538
4127,41.27,-558.73,0.0542
4128,41.28,-558.72,0.049
4129,41.29,-558.71,0.0326
4130,41.3,-558.7,0.0378
4131,41.31,-558.69,0.0022
4132,41.32,-558.68,-0.0045
4133,41.33,-558.67,0.0102
4134,41.34,-558.66,0.0236
4135,41.35,-558.65,0.0041
4136,41.36,-558.64,0.0034
4137,41.37,-558.63,0.0076
4138,41.38,-558.62,-0.006
4139,41.39,-558.61,0.0032
4140,41.4,-558.6,-0.0051
4141,41.41,-558.59,-0.0153
4142,41.42,-558.58,-0.0257
4143,41.43,-558.57,-0.016
4144,41.44,-558.56,-0.0006
4145,41.45,-558.55,-0.024
4146,41.46,-558.54,-0.0449
4147,41.47,-558.53,-0.0478
4148,41.48,-558.52,0.011
4149,41.49,-558.51,0.0414
4150,41.5,-558.5,0.0564
4151,41.51,-558.49,0.0871
4152,41.52,-558.48,0.0919
4153,41.53,-558.47,0.0868
4154,41.54,-558.46,0.0623
4155,41.55,-558.45,0.0425
4156,41.56,-558.44,0.02
4157,41.57,-558.43,0.0052
4158,41.58,-558.42,0.0293
4159,41.59,-558.41,0.0185
4160,41.6,-558.4,-0.0015
4161,41.61,-558.39,0.0066
4162,41.62,-558.38,-0.0051
4163,41.63,-558.37,-0.0136
4164,41.64,-558.36,-0.0176
4165,41.65,-558.35,-0.0053
4166,41.66,-558.34,-0.0338
4167,41.67,-558.33,-0.0298
4168,41.68,-558.32,-0.0285
4169,41.69,-558.31,-0.0176
4170,41.7,-558.3,-0.0456
4171,41.71,-558.29,-0.0555
4172,41.72,-558.28,-0.0486
4173,41.73,-558.27,-0.0779
4174,41.74,-558.26,-0.0655
4175,41.75,-558.25,-0.052
4176,41.76,-558.24,-0.0778
4177,41.77,-558.23,-0.0777
4178,41.78,-558.22,-0.0415
4179,41.79,-558.21,-0.0315
4180,41.8,-558.2,0
4181,41.81,-558.19,0.0294
4182,41.82,-558.18,0.0649
4183,41.83,-558.17,0.086
4184,41.84,-558.16,0.0692
4185,41.85,-558.15,0.1078
4186,41.86,-558.14,0.0438
4187,41.87,-558.13,0.0364
4188,41.88,-558.12,0.0103
4189,41.89,-558.11,-0.0567
4190,41.9,-558.1,-0.0689
4191,41.91,-558.09,-0.0568
4192,41.92,-558.08,-0.0624
4193,41.93,-558.07,-0.062
4194,41.94,-558.06,-0.04
4195,41.95,-558.05,-0.0601
4196,41.96,-558.04,0.144
4197,41.97,-558.03,0.989
4198,41.98,-558.02,1.7798
4199,41.99,-558.01,0.786
4200,42,-558,-0.5737
4201,42.01,-557.99,-0.6385
4202,42.02,-557.98,-0.4351
4203,42.03,-557.97,-0.2176
4204,42.04,-557.96,-0.1294
4205,42.05,-557.95,-0.0708
4206,42.06,-557.94,-0.0611
4207,42.07,-557.93,-0.0642
4208,42.08,-557.92,-0.074
4209,42.09,-557.91,-0.0578
4210,42.1,-557.9,-0.0628
4211,42.11,-557.89,-0.0636
4212,42.12,-557.88,-0.0671
4213,42.13,-557.87,-0.0697
4214,42.14,-557.86,-0.0717
4215,42.15,-557.85,-0.0759
4216,42.16,-557.84,-0.076
4217,42.17,-557.83,-0.0837
4218,42.18,-557.82,-0.068
4219,42.19,-557.81,-0.068
4220,42.2,-557.8,-0.0664
4221,42.21,-557.79,-0.0949
4222,42.22,-557.78,-0.0979
4223,42.23,-557.77,-0.0499
4224,42.24,-557.76,-0.0869
4225,42.25,-557.75,-0.1209
4226,42.26,-557.74,-0.0974
4227,42.27,-557.73,-0.0498
4228,42.28,-557.72,0.0041
4229,42.29,-557.71,0.0456
4230,42.3,-557.7,0.0283
4231,42.31,-557.69,0.0645
4232,42.32,-557.68,0.0587
4233,42.33,-557.67,-0.0073
4234,42.34,-557.66,0.0225
4235,42.35,-557.65,-0.0034
4236,42.36,-557.64,0.0006
4237,42.37,-557.63,0.0119
4238,42.38,-557.62,0.0072
4239,42.39,-557.61,0.0036
4240,42.4,-557.6,0.0087
4241,42.41,-557.59,0.0248
4242,42.42,-557.58,0.0201
4243,42.43,-557.57,0.021
4244,42.44,-557.56,0.0188
4245,42.45,-557.55,0.0186
4246,42.46,-557.54,0.0173
4247,42.47,-557.53,0.0172
4248,42.48,-557.52,0.0165
4249,42.49,-557.51,0.0169
4250,42.5,-557.5,0.016
4251,42.51,-557.49,0.0172
4252,42.52,-557.48,0.015
4253,42.53,-557.47,0.0189
4254,42.54,-557.46,0.0012
4255,42.55,-557.45,-0.0033
4256,42.56,-557.44,0.02
4257,42.57,-557.43,0.0556
4258,42.58,-557.42,0.0949
4259,42.59,-557.41,0.0964
4260,42.6,-557.4,0.0963
4261,42.61,-557.39,0.1035
4262,42.62,-557.38,0.1356
4263,42.63,-557.37,0.1002
4264,42.64,-557.36,0.0721
4265,42.65,-557.35,0.04
4266,42.66,-557.34,-0.0151
4267,42.67,-557.33,-0.024
4268,42.68,-557.32,-0.0196
4269,42.69,-557.31,-0.0298
4270,42.7,-557.3,-0.0453
4271,42.71,-557.29,-0.0338
4272,42.72,-557.28,-0.0337
4273,42.73,-557.27,0.0455
4274,42.74,-557.26,0.8437
4275,42.75,-557.25,1.8201
4276,42.76,-557.24,1.1344
4277,42.77,-557.23,-0.4332
4278,42.78,-557.22,-0.7636
4279,42.79,-557.21,-0.4503
4280,42.8,-557.2,-0.2124
4281,42.81,-557.19,-0.1473
4282,42.82,-557.18,-0.1129
4283,42.83,-557.17,-0.0788
4284,42.84,-557.16,-0.0837
4285,42.85,-557.15,-0.0816
4286,42.86,-557.14,-0.0844
4287,42.87,-557.13,-0.0848
4288,42.88,-557.12,-0.1081
4289,42.89,-557.11,-0.096
4290,42.9,-557.1,-0.0847
4291,42.91,-557.09,-0.0897
4292,42.92,-557.08,-0.0872
4293,42.93,-557.07,-0.0925
4294,42.94,-557.06,-0.0767
4295,42.95,-557.05,-0.07
4296,42.96,-557.04,-0.0524
4297,42.97,-557.03,-0.0592
4298,42.98,-557.02,-0.0295
4299,42.99,-557.01,-0.0145
4300,43,-557,-0.0245
4301,43.01,-556.99,-0.0116
4302,43.02,-556.98,-0.0018
4303,43.03,-556.97,0.0105
4304,43.04,-556.96,0.0455
4305,43.05,-556.95,0.0809
4306,43.06,-556.94,0.1184
4307,43.07,-556.93,0.1321
4308,43.08,-556.92,0.1222
4309,43.09,-556.91,0.1288
4310,43.1,-556.9,0.1044
4311,43.11,-556.89,0.087
4312,43.12,-556.88,0.0587
4313,43.13,-556.87,0.0202
4314,43.14,-556.86,0.0408
4315,43.15,-556.85,0.0151
4316,43.16,-556.84,0.0356
4317,43.17,-556.83,0.0306
4318,43.18,-556.82,0.0333
4319,43.19,-556.81,0.0264
4320,43.2,-556.8,-0.0128
4321,43.21,-556.79,-0.0037
4322,43.22,-556.78,0.0244
4323,43.23,-556.77,0.0091
4324,43.24,-556.76,0.0058
4325,43.25,-556.75,0.0061
4326,43.26,-556.74,0.0076
4327,43.27,-556.73,0.0042
4328,43.28,-556.72,-0.0103
4329,43.29,-556.71,-0.0204
4330,43.3,-556.7,-0.0316
4331,43.31,-556.69,-0.0444
4332,43.32,-556.68,-0.0491
4333,43.33,-556.67,-0.0368
4334,43.34,-556.66,-0.0069
4335,43.35,-556.65,0.0317
4336,43.36,-556.64,0.0487
4337,43.37,-556.63,0.058
4338,43.38,-556.62,0.0924
4339,43.39,-556.61,0.1046
4340,43.4,-556.6,0.0638
4341,43.41,-556.59,0.0639
4342,43.42,-556.58,0.0182
4343,43.43,-556.57,-0.027
4344,43.44,-556.56,-0.0772
4345,43.45,-556.55,-0.075
4346,43.46,-556.54,-0.0609
4347,43.47,-556.53,-0.0421
4348,43.48,-556.52,-0.0188
4349,43.49,-556.51,-0.0624
4350,43.5,-556.5,-0.0077
4351,43.51,-556.49,0.6713
4352,43.52,-556.48,1.7492
4353,43.53,-556.47,1.4808
4354,43.54,-556.46,-0.1712
4355,43.55,-556.45,-0.7953
4356,43.56,-556.44,-0.5031
4357,43.57,-556.43,-0.2285
4358,43.58,-556.42,-0.1179
4359,43.59,-556.41,-0.0718
4360,43.6,-556.4,-0.0461
4361,43.61,-556.39,-0.0605
4362,43.62,-556.38,-0.0747
4363,43.63,-556.37,-0.0664
4364,43.64,-556.36,-0.06
4365,43.65,-556.35,-0.0658
4366,43.66,-556.34,-0.0501
4367,43.67,-556.33,-0.0592
4368,43.68,-556.32,-0.0496
4369,43.69,-556.31,-0.0369
4370,43.7,-556.3,-0.0387
4371,43.71,-556.29,-0.0412
4372,43.72,-556.28,-0.036
4373,43.73,-556.27,-0.0197
4374,43.74,-556.26,-0.0254
4375,43.75,-556.25,-0.0072
4376,43.76,-556.24,-0.0288
4377,43.77,-556.23,-0.0175
4378,43.78,-556.22,-0.006
4379,43.79,-556.21,-0.0105
4380,43.8,-556.2,0.0167
4381,43.81,-556.19,0.0353
4382,43.82,-556.18,0.0788
4383,43.83,-556.17,0.1048
4384,43.84,-556.16,0.1124
4385,43.85,-556.15,0.1187
4386,43.86,-556.14,0.0862
4387,43.87,-556.13,0.0631
4388,43.88,-556.12,0.0346
4389,43.89,-556.11,0.009
4390,43.9,-556.1,-0.0062
4391,43.91,-556.09,0.0017
4392,43.92,-556.08,0.0087
4393,43.93,-556.07,-0.0054
4394,43.94,-556.06,-0.0196
4395,43.95,-556.05,-0.0277
4396,43.96,-556.04,-0.0042
4397,43.97,-556.03,-0.0113
4398,43.98,-556.02,0.0073
4399,43.99,-556.01,0.029
4400,44,-556,0.0376
4401,44.01,-555.99,0.053
4402,44.02,-555.98,0.0512
4403,44.03,-555.97,0.0668
4404,44.04,-555.96,0.0538
4405,44.05,-555.95,0.0416
4406,44.06,-555.94,0.0304
4407,44.07,-555.93,0.0158
4408,44.08,-555.92,0.0092
4409,44.09,-555.91,-0.0191
4410,44.1,-555.9,-0.0128
4411,44.11,-555.89,0.0013
4412,44.12,-555.88,0.022
4413,44.13,-555.87,0.0542
4414,44.14,-555.86,0.0649
4415,44.15,-555.85,0.0831
4416,44.16,-555.84,0.0917
4417,44.17,-555.83,0.0822
4418,44.18,-555.82,0.0596
4419,44.19,-555.81,0.0515
4420,44.2,-555.8,0.0161
4421,44.21,-555.79,-0.0191
4422,44.22,-555.78,-0.041
4423,44.23,-555.77,-0.0442
4424,44.24,-555.76,-0.0384
4425,44.25,-555.75,-0.0391
4426,44.26,-555.74,-0.0199
4427,44.27,-555.73,-0.0452
4428,44.28,-555.72,-0.0012
4429,44.29,-555.71,0.6371
4430,44.3,-555.7,1.6832
4431,44.31,-555.69,1.3928
4432,44.32,-555.68,-0.1951
4433,44.33,-555.67,-0.7969
4434,44.34,-555.66,-0.4776
4435,44.35,-555.65,-0.2182
4436,44.36,-555.64,-0.1164
4437,44.37,-555.63,-0.0768
4438,44.38,-555.62,-0.0776
4439,44.39,-555.61,-0.0754
4440,44.4,-555.6,-0.0743
4441,44.41,-555.59,-0.0726
4442,44.42,-555.58,-0.0728
4443,44.43,-555.57,-0.0531
4444,44.44,-555.56,-0.0501
4445,44.45,-555.55,-0.051
4446,44.46,-555.54,-0.0495
4447,44.47,-555.53,-0.0503
4448,44.48,-555.52,-0.048
4449,44.49,-555.51,-0.0511
4450,44.5,-555.5,-0.0342
4451,44.51,-555.49,-0.0272
4452,44.52,-555.48,-0.0291
4453,44.53,-555.47,-0.0287
4454,44.54,-555.46,-0.0279
4455,44.55,-555.45,-0.0304
4456,44.56,-555.44,-0.0224
4457,44.57,-555.43,-0.0077
4458,44.58,-555.42,0.0035
4459,44.59,-555.41,0.0346
4460,44.6,-555.4,0.0768
4461,44.61,-555.39,0.1006
4462,44.62,-555.38,0.1277
4463,44.63,-555.37,0.1298
4464,44.64,-555.36,0.1069
4465,44.65,-555.35,0.0771
4466,44.66,-555.34,0.0705
4467,44.67,-555.33,0.0317
4468,44.68,-555.32,0.0307
4469,44.69,-555.31,0.016
4470,44.7,-555.3,0.0208
4471,44.71,-555.29,0.0266
4472,44.72,-555.28,0.0074
4473,44.73,-555.27,-0.0048
4474,44.74,-555.26,-0.0034
4475,44.75,-555.25,0.0079
4476,44.76,-555.24,0.0028
4477,44.77,-555.23,0.0042
4478,44.78,-555.22,0.0041
4479,44.79,-555.21,-0.0156
4480,44.8,-555.2,-0.0123
4481,44.81,-555.19,0.0072
4482,44.82,-555.18,0.0017
4483,44.83,-555.17,0.0239
4484,44.84,-555.16,-0.0016
4485,44.85,-555.15,-0.0133
4486,44.86,-555.14,-0.0253
4487,44.87,-555.13,-0.032
4488,44.88,-555.12,-0.0013
4489,44.89,-555.11,0.0213
4490,44.9,-555.1,0.0537
4491,44.91,-555.09,0.0542
4492,44.92,-555.08,0.0713
4493,44.93,-555.07,0.0986
4494,44.94,-555.06,0.0518
4495,44.95,-555.05,0.0408
4496,44.96,-555.04,0.0266
4497,44.97,-555.03,-0.0217
4498,44.98,-555.02,-0.0694
4499,44.99,-555.01,-0.0681
4500,45,-555,-0.0869
4501,45.01,-554.99,-0.0821
4502,45.02,-554.98,-0.0705
4503,45.03,-554.97,-0.0337
4504,45.04,-554.96,-0.0541
4505,45.05,-554.95,0.0493
4506,45.06,-554.94,0.8673
4507,45.07,-554.93,1.7424
4508,45.08,-554.92,1.0191
4509,45.09,-554.91,-0.4385
4510,45.1,-554.9,-0.6926
4511,45.11,-554.89,-0.4671
4512,45.12,-554.88,-0.2542
4513,45.13,-554.87,-0.1232
4514,45.14,-554.86,-0.0735
4515,45.15,-554.85,-0.04
4516,45.16,-554.84,-0.0437
4517,45.17,-554.83,-0.0421
4518,45.18,-554.82,-0.0452
4519,45.19,-554.81,-0.0477
4520,45.2,-554.8,-0.0496
4521,45.21,-554.79,-0.056
4522,45.22,-554.78,-0.0429
4523,45.23,-554.77,-0.039
4524,45.24,-554.76,-0.0445
4525,45.25,-554.75,-0.047
4526,45.26,-554.74,-0.0504
4527,45.27,-554.73,-0.0546
4528,45.28,-554.72,-0.0563
4529,45.29,-554.71,-0.0637
4530,45.3,-554.7,-0.0494
4531,45.31,-554.69,-0.0482
4532,45.32,-554.68,-0.0465
4533,45.33,-554.67,-0.0328
4534,45.34,-554.66,-0.0393
4535,45.35,-554.65,-0.0416
4536,45.36,-554.64,-0.0164
4537,45.37,-554.63,0.0304
4538,45.38,-554.62,0.0787
4539,45.39,-554.61,0.0845
4540,45.4,-554.6,0.0798
4541,45.41,-554.59,0.0668
4542,45.42,-554.58,0.0471
4543,45.43,-554.57,0.0354
4544,45.44,-554.56,0.0357
4545,45.45,-554.55,0.0219
4546,45.46,-554.54,0.0022
4547,45.47,-554.53,-0.0047
4548,45.48,-554.52,0.0117
4549,45.49,-554.51,0.02
4550,45.5,-554.5,0.0336
4551,45.51,-554.49,0.028
4552,45.52,-554.48,0.0305
4553,45.53,-554.47,0.0274
4554,45.54,-554.46,0.0291
4555,45.55,-554.45,0.0259
4556,45.56,-554.44,0.0299
4557,45.57,-554.43,0.017
4558,45.58,-554.42,0.0056
4559,45.59,-554.41,0.0071
4560,45.6,-554.4,-0.0139
4561,45.61,-554.39,-0.0101
4562,45.62,-554.38,-0.0115
4563,45.63,-554.37,-0.0061
4564,45.64,-554.36,0.0149
4565,45.65,-554.35,0.0551
4566,45.66,-554.34,0.0807
4567,45.67,-554.33,0.0741
4568,45.68,-554.32,0.1073
4569,45.69,-554.31,0.0701
4570,45.7,-554.3,0.0356
4571,45.71,-554.29,0.0309
4572,45.72,-554.28,-0.0127
4573,45.73,-554.27,-0.0673
4574,45.74,-554.26,-0.0714
4575,45.75,-554.25,-0.069
4576,45.76,-554.24,-0.0664
4577,45.77,-554.23,-0.0655
4578,45.78,-554.22,-0.062
4579,45.79,-554.21,-0.0657
4580,45.8,-554.2,-0.0187
4581,45.81,-554.19,0.6543
4582,45.82,-554.18,1.7653
4583,45.83,-554.17,1.4989
4584,45.84,-554.16,-0.1394
4585,45.85,-554.15,-0.7802
4586,45.86,-554.14,-0.4888
4587,45.87,-554.13,-0.2626
4588,45.88,-554.12,-0.1425
4589,45.89,-554.11,-0.0961
4590,45.9,-554.1,-0.085
4591,45.91,-554.09,-0.0717
4592,45.92,-554.08,-0.0681
4593,45.93,-554.07,-0.0726
4594,45.94,-554.06,-0.0735
4595,45.95,-554.05,-0.0754
4596,45.96,-554.04,-0.0822
4597,45.97,-554.03,-0.1063
4598,45.98,-554.02,-0.0861
4599,45.99,-554.01,-0.0883
4600,46,-554,-0.077
4601,46.01,-553.99,-0.0467
4602,46.02,-553.98,-0.0547
4603,46.03,-553.97,-0.0559
4604,46.04,-553.96,-0.0537
4605,46.05,-553.95,-0.0376
4606,46.06,-553.94,-0.0457
4607,46.07,-553.93,-0.0253
4608,46.08,-553.92,-0.0067
4609,46.09,-553.91,-0.0125
4610,46.1,-553.9,0.0002
4611,46.11,-553.89,0.0261
4612,46.12,-553.88,0.0714
4613,46.13,-553.87,0.1148
4614,46.14,-553.86,0.1036
4615,46.15,-553.85,0.092
4616,46.16,-553.84,0.0913
4617,46.17,-553.83,0.0471
4618,46.18,-553.82,0.0225
4619,46.19,-553.81,0.0279
4620,46.2,-553.8,0.0168
4621,46.21,-553.79,0.0005
4622,46.22,-553.78,0.0021
4623,46.23,-553.77,0.0005
4624,46.24,-553.76,0.0016
4625,46.25,-553.75,-0.0002
4626,46.26,-553.74,0.0019
4627,46.27,-553.73,-0.0018
4628,46.28,-553.72,0.007
4629,46.29,-553.71,0.021
4630,46.3,-553.7,0.0214
4631,46.31,-553.69,-0
4632,46.32,-553.68,0.007
4633,46.33,-553.67,0.013
4634,46.34,-553.66,-0.0035
4635,46.35,-553.65,0.0027
4636,46.36,-553.64,-0.0006
4637,46.37,-553.63,0.0037
4638,46.38,-553.62,-0.0102
4639,46.39,-553.61,-0.0178
4640,46.4,-553.6,0.0207
4641,46.41,-553.59,0.0514
4642,46.42,-553.58,0.0631
4643,46.43,-553.57,0.0789
4644,46.44,-553.56,0.0934
4645,46.45,-553.55,0.1013
4646,46.46,-553.54,0.0724
4647,46.47,-553.53,0.0381
4648,46.48,-553.52,0.019
4649,46.49,-553.51,-0.0498
4650,46.5,-553.5,-0.0772
4651,46.51,-553.49,-0.069
4652,46.52,-553.48,-0.0686
4653,46.53,-553.47,-0.0667
4654,46.54,-553.46,-0.0509
4655,46.55,-553.45,-0.0572
4656,46.56,-553.44,-0.0752
4657,46.57,-553.43,0.3485
4658,46.58,-553.42,1.4421
4659,46.59,-553.41,1.799
4660,46.6,-553.4,0.3546
4661,46.61,-553.39,-0.7703
